# dimensionless total [l(l+1)/2pi] C_l's
# for l=2 to 3000, i.e. number of multipoles equal to 2999
#
# -> if you prefer output in CAMB/HealPix/LensPix units/order, set 'format' to 'camb' in input file
# -> if you don't want to see such a header, set 'headers' to 'no' in input file
# -> for CMB lensing (phi), these are C_l^phi-phi for the lensing potential.
#    Remember the conversion factors:
#    C_l^dd (deflection) = l(l+1) C_l^phi-phi
#    C_l^gg (shear/convergence) = 1/4 (l(l+1))^2 C_l^phi-phi
#
# 1:l     2:TT                     3:EE                     4:TE                     5:BB                     6:phiphi                 7:TPhi                   8:Ephi               
    2       1.331314029681e-10       6.337930678504e-15       4.185686236963e-13       0.000000000000e+00       7.841312389276e-09       4.403953566983e-10      -2.202387513657e-12 
    3       1.255871713649e-10       1.060512504890e-14       5.258315322082e-13       0.000000000000e+00       4.854025786015e-09       3.139063682159e-10      -1.928021253609e-12 
    4       1.181466248427e-10       1.220663533532e-14       5.421902320863e-13       0.000000000000e+00       3.379491127580e-09       2.388412723022e-10      -1.526829795098e-12 
    5       1.122959423323e-10       1.110234694344e-14       5.058880908895e-13       0.000000000000e+00       2.522858544771e-09       1.895021548253e-10      -1.121226946459e-12 
    6       1.080222230843e-10       8.406420270877e-15       4.433454128985e-13       0.000000000000e+00       1.971310115343e-09       1.547954670623e-10      -7.538725179381e-13 
    7       1.050626948908e-10       5.463497956632e-15       3.724413513492e-13       0.000000000000e+00       1.591369710221e-09       1.291487491904e-10      -4.463373526530e-13 
    8       1.030892117910e-10       3.183862392833e-15       3.040584940169e-13       0.000000000000e+00       1.316048449120e-09       1.095272745461e-10      -2.077488701886e-13 
    9       1.019256537997e-10       1.853883240239e-15       2.445148817516e-13       0.000000000000e+00       1.108949881245e-09       9.417416600330e-11      -3.879862825843e-14 
   10       1.014139230979e-10       1.291734771519e-15       1.970432761388e-13       0.000000000000e+00       9.485692091501e-10       8.192364464005e-11       6.615705421356e-14 
   11       1.013400621960e-10       1.136058198342e-15       1.628999504163e-13       0.000000000000e+00       7.991316710629e-10       7.210496454152e-11       1.164970704261e-13 
   12       1.016412674164e-10       1.084121258370e-15       1.417440965430e-13       0.000000000000e+00       6.984897389093e-10       6.382631132967e-11       1.264931379386e-13 
   13       1.022338430936e-10       9.939811835972e-16       1.317985917743e-13       0.000000000000e+00       6.158446221913e-10       5.682965540435e-11       1.080938848071e-13 
   14       1.030596181293e-10       8.630737290307e-16       1.305128367823e-13       0.000000000000e+00       5.470547247533e-10       5.102561822888e-11       7.398071087357e-14 
   15       1.040616395609e-10       7.486570448090e-16       1.351868572214e-13       0.000000000000e+00       4.891386458081e-10       4.615733150970e-11       3.456215886479e-14 
   16       1.051918339553e-10       6.962496966539e-16       1.432855491386e-13       0.000000000000e+00       4.398842563523e-10       4.194733582243e-11      -2.354924652128e-15 
   17       1.064994529525e-10       7.098350094681e-16       1.526400558272e-13       0.000000000000e+00       3.976187157045e-10       3.821442270427e-11      -3.166266931301e-14 
   18       1.078760955350e-10       7.593809748116e-16       1.616661461293e-13       0.000000000000e+00       3.609235678063e-10       3.496352474538e-11      -5.054815893847e-14 
   19       1.093312711711e-10       8.192111216505e-16       1.697095241462e-13       0.000000000000e+00       3.292215580428e-10       3.215536853527e-11      -5.873175128269e-14 
   20       1.108770739358e-10       8.667452038305e-16       1.763777425752e-13       0.000000000000e+00       3.012938216444e-10       2.964604306526e-11      -5.763259134692e-14 
   21       1.124991387180e-10       9.098708059169e-16       1.817473161353e-13       0.000000000000e+00       2.767036307775e-10       2.739971822259e-11      -4.956471237179e-14 
   22       1.141497882551e-10       9.686830950167e-16       1.861547028675e-13       0.000000000000e+00       2.548644195047e-10       2.538257372088e-11      -3.778224455233e-14 
   23       1.158489526096e-10       1.057644892498e-15       1.900995634284e-13       0.000000000000e+00       2.354769937868e-10       2.358525919485e-11      -2.485035935540e-14 
   24       1.176152847801e-10       1.187859750708e-15       1.941673718632e-13       0.000000000000e+00       2.180941879217e-10       2.198017729512e-11      -1.331883805466e-14 
   25       1.194355285516e-10       1.356679324643e-15       1.986777365967e-13       0.000000000000e+00       2.025123668918e-10       2.052950801332e-11      -4.707888923073e-15 
   26       1.212747952971e-10       1.556062474249e-15       2.038270433162e-13       0.000000000000e+00       1.884504823030e-10       1.918366965161e-11      -4.426287992604e-17 
   27       1.231367586643e-10       1.781924398788e-15       2.095805389305e-13       0.000000000000e+00       1.757409892536e-10       1.795071056350e-11       8.400793053210e-16 
   28       1.250279240213e-10       2.031173784999e-15       2.157589218626e-13       0.000000000000e+00       1.641659573945e-10       1.684565936614e-11      -1.309158263310e-15 
   29       1.269557330282e-10       2.303526853339e-15       2.220388942126e-13       0.000000000000e+00       1.536664543019e-10       1.586029543027e-11      -5.613815956787e-15 
   30       1.289164443018e-10       2.599397664656e-15       2.279605615145e-13       0.000000000000e+00       1.441295808411e-10       1.496619441502e-11      -1.089113686473e-14 
   31       1.308973324500e-10       2.918739295418e-15       2.330057085740e-13       0.000000000000e+00       1.353607476708e-10       1.412746412376e-11      -1.580313819000e-14 
   32       1.329044863585e-10       3.260068530388e-15       2.368752358536e-13       0.000000000000e+00       1.273150467819e-10       1.334328682232e-11      -1.966911165667e-14 
   33       1.349431202317e-10       3.621005462337e-15       2.393085178897e-13       0.000000000000e+00       1.199361928241e-10       1.261989955601e-11      -2.193996404554e-14 
   34       1.370116168973e-10       3.999722467570e-15       2.400689948769e-13       0.000000000000e+00       1.131215818400e-10       1.195845474276e-11      -2.216402779782e-14 
   35       1.391098409635e-10       4.399266956748e-15       2.391508407145e-13       0.000000000000e+00       1.068364912367e-10       1.135290588557e-11      -2.061317257227e-14 
   36       1.412320854730e-10       4.824826333541e-15       2.366482479454e-13       0.000000000000e+00       1.010305137739e-10       1.079040588431e-11      -1.789050204020e-14 
   37       1.433689819378e-10       5.281597340647e-15       2.326896913271e-13       0.000000000000e+00       9.562812858298e-11       1.025623072680e-11      -1.467731803331e-14 
   38       1.455246758752e-10       5.771122966624e-15       2.273867158819e-13       0.000000000000e+00       9.061547064776e-11       9.750779785623e-12      -1.138558266638e-14 
   39       1.477042654653e-10       6.293772014931e-15       2.208729292016e-13       0.000000000000e+00       8.597676307526e-11       9.277665586918e-12      -8.403289424891e-15 
   40       1.499085937645e-10       6.849699669941e-15       2.133206873761e-13       0.000000000000e+00       8.166792586580e-11       8.838952788781e-12      -6.193215331290e-15 
   41       1.521355731265e-10       7.438916555252e-15       2.048841494963e-13       0.000000000000e+00       7.763195650017e-11       8.434906015805e-12      -5.162524262989e-15 
   42       1.543858238287e-10       8.061560948919e-15       1.955006107429e-13       0.000000000000e+00       7.385703049377e-11       8.063529588890e-12      -5.209941122329e-15 
   43       1.566580680342e-10       8.717688575023e-15       1.850283721861e-13       0.000000000000e+00       7.033315759759e-11       7.720601427968e-12      -6.038577729876e-15 
   44       1.589471399478e-10       9.407185592433e-15       1.732986687364e-13       0.000000000000e+00       6.703474398509e-11       7.399580757102e-12      -7.273233170199e-15 
   45       1.612469563713e-10       1.012991121349e-14       1.601387062136e-13       0.000000000000e+00       6.392974515596e-11       7.093504135395e-12      -8.527186622012e-15 
   46       1.635613201331e-10       1.088619985505e-14       1.454531698398e-13       0.000000000000e+00       6.101331538325e-11       6.801750890761e-12      -9.637873985346e-15 
   47       1.658957453423e-10       1.167649218301e-14       1.291640630441e-13       0.000000000000e+00       5.828210478930e-11       6.525010537826e-12      -1.049337804890e-14 
   48       1.682542560998e-10       1.250119444076e-14       1.111876725049e-13       0.000000000000e+00       5.572411042046e-11       6.263342006992e-12      -1.096615086322e-14 
   49       1.706392245461e-10       1.336067728441e-14       9.143422144636e-14       0.000000000000e+00       5.331803254326e-11       6.016122313660e-12      -1.091226690633e-14 
   50       1.730516009648e-10       1.425522835596e-14       6.983607190194e-14       0.000000000000e+00       5.103969716471e-11       5.782358178687e-12      -1.022863725981e-14 
   51       1.754920534584e-10       1.518489752854e-14       4.644216058246e-14       0.000000000000e+00       4.888487219283e-11       5.561839695683e-12      -9.044693329212e-15 
   52       1.779598576793e-10       1.614960764139e-14       2.134859725912e-14       0.000000000000e+00       4.685153178338e-11       5.354211085265e-12      -7.581442553745e-15 
   53       1.804523917123e-10       1.714919382796e-14      -5.326670682792e-15       0.000000000000e+00       4.493302761155e-11       5.158601675214e-12      -6.099988640391e-15 
   54       1.829649925718e-10       1.818340017417e-14      -3.344286146638e-14       0.000000000000e+00       4.311777769631e-11       4.973591649751e-12      -4.903512306491e-15 
   55       1.854928687505e-10       1.925196212492e-14      -6.287277771811e-14       0.000000000000e+00       4.139280272657e-11       4.797612168617e-12      -4.261703856693e-15 
   56       1.880377229984e-10       2.035488533255e-14      -9.362494093784e-14       0.000000000000e+00       3.975607666438e-11       4.630340587868e-12      -4.157539962274e-15 
   57       1.906025234275e-10       2.149223022692e-14      -1.257500519190e-13       0.000000000000e+00       3.820669924816e-11       4.471591849057e-12      -4.481070223791e-15 
   58       1.931895295883e-10       2.266403233524e-14      -1.593066843935e-13       0.000000000000e+00       3.674115954093e-11       4.320897526575e-12      -5.100435923462e-15 
   59       1.958002290728e-10       2.387030228115e-14      -1.943617460033e-13       0.000000000000e+00       3.535317465740e-11       4.177488500431e-12      -5.860829410658e-15 
   60       1.984352741173e-10       2.511102578374e-14      -2.309909392730e-13       0.000000000000e+00       3.403352849094e-11       4.040277629038e-12      -6.583453487379e-15 
   61       2.010949676591e-10       2.638610324555e-14      -2.692627332681e-13       0.000000000000e+00       3.277263288769e-11       3.908167621288e-12      -7.106327561352e-15 
   62       2.037809924193e-10       2.769515267293e-14      -3.091850315599e-13       0.000000000000e+00       3.156924779936e-11       3.781094605434e-12      -7.419763535677e-15 
   63       2.064949591984e-10       2.903766231601e-14      -3.507472968368e-13       0.000000000000e+00       3.042344118830e-11       3.659189119010e-12      -7.559590738660e-15 
   64       2.092378466171e-10       3.041304529647e-14      -3.939359228895e-13       0.000000000000e+00       2.933396589069e-11       3.542464709271e-12      -7.568273970010e-15 
   65       2.120099551528e-10       3.182063768979e-14      -4.387341723892e-13       0.000000000000e+00       2.829818472471e-11       3.430810924296e-12      -7.495200652608e-15 
   66       2.148108611767e-10       3.325969660750e-14      -4.851221146670e-13       0.000000000000e+00       2.731199559873e-11       3.323986304103e-12      -7.396967984284e-15 
   67       2.176393709901e-10       3.472939827939e-14      -5.330765634917e-13       0.000000000000e+00       2.636975661951e-11       3.221611371753e-12      -7.337670089597e-15 
   68       2.204941943698e-10       3.622888923045e-14      -5.825729937799e-13       0.000000000000e+00       2.546579362750e-11       3.123287361312e-12      -7.374181448820e-15 
   69       2.233762264274e-10       3.775745613978e-14      -6.335918817970e-13       0.000000000000e+00       2.459944492193e-11       3.028996004639e-12      -7.507902593645e-15 
   70       2.262866476687e-10       3.931438711255e-14      -6.861135437734e-13       0.000000000000e+00       2.377090888759e-11       2.938768533053e-12      -7.723707746701e-15 
   71       2.292262183274e-10       4.089892108088e-14      -7.401162592411e-13       0.000000000000e+00       2.297971820756e-11       2.852563382860e-12      -8.003988583606e-15 
   72       2.321952508032e-10       4.251024724393e-14      -7.955762594244e-13       0.000000000000e+00       2.222470544268e-11       2.770262402244e-12      -8.328557657821e-15 
   73       2.351935821007e-10       4.414750450816e-14      -8.524677156306e-13       0.000000000000e+00       2.150396861107e-11       2.691667058151e-12      -8.674551825498e-15 
   74       2.382205462675e-10       4.580978092740e-14      -9.107627276408e-13       0.000000000000e+00       2.081483676758e-11       2.616494643171e-12      -9.016335670330e-15 
   75       2.412749468327e-10       4.749611314310e-14      -9.704313121004e-13       0.000000000000e+00       2.015383558325e-11       2.544374482427e-12      -9.325404928402e-15 
   76       2.443555966300e-10       4.920542579470e-14      -1.031440594938e-12       0.000000000000e+00       1.951755015129e-11       2.474939374159e-12      -9.576464921933e-15 
   77       2.474631118403e-10       5.093633823268e-14      -1.093752244272e-12       0.000000000000e+00       1.890547113574e-11       2.408127546919e-12      -9.767159012679e-15 
   78       2.505983965474e-10       5.268732137787e-14      -1.157324546114e-12       0.000000000000e+00       1.831760750792e-11       2.343929130228e-12      -9.901778983979e-15 
   79       2.537620887073e-10       5.445675286246e-14      -1.222113131333e-12       0.000000000000e+00       1.775361960031e-11       2.282293995261e-12      -9.985438749564e-15 
   80       2.569545442209e-10       5.624291523925e-14      -1.288070947725e-12       0.000000000000e+00       1.721280308435e-11       2.223129914580e-12      -1.002410440197e-14 
   81       2.601758210076e-10       5.804399419079e-14      -1.355148232079e-12       0.000000000000e+00       1.669407294833e-11       2.166300721862e-12      -1.002462426094e-14 
   82       2.634256630778e-10       5.985807673865e-14      -1.423292482251e-12       0.000000000000e+00       1.619594747516e-11       2.111624471625e-12      -9.994758921833e-15 
   83       2.667034846066e-10       6.168314945259e-14      -1.492448429225e-12       0.000000000000e+00       1.571653222025e-11       2.058871598965e-12      -9.943211304052e-15 
   84       2.700086925706e-10       6.351726575487e-14      -1.562562761200e-12       0.000000000000e+00       1.525398067061e-11       2.007821941829e-12      -9.877868478470e-15 
   85       2.733417510014e-10       6.535908362332e-14      -1.633599256841e-12       0.000000000000e+00       1.480799906306e-11       1.958450700317e-12      -9.800126439475e-15 
   86       2.767032647821e-10       6.720741415915e-14      -1.705526121255e-12       0.000000000000e+00       1.437856281709e-11       1.910770074787e-12      -9.709675218227e-15 
   87       2.800936466841e-10       6.906106145310e-14      -1.778311508200e-12       0.000000000000e+00       1.396545414131e-11       1.864772305831e-12      -9.606203447220e-15 
   88       2.835131071300e-10       7.091882363652e-14      -1.851923572025e-12       0.000000000000e+00       1.356825402277e-11       1.820428823296e-12      -9.489398354557e-15 
   89       2.869616439575e-10       7.277949393257e-14      -1.926330519602e-12       0.000000000000e+00       1.318633421623e-11       1.777689395296e-12      -9.358945758226e-15 
   90       2.904390321818e-10       7.464186170733e-14      -2.001500662261e-12       0.000000000000e+00       1.281884923346e-11       1.736481277229e-12      -9.214530060376e-15 
   91       2.939448137597e-10       7.650471352092e-14      -2.077402467722e-12       0.000000000000e+00       1.246472833248e-11       1.696708360794e-12      -9.055834241590e-15 
   92       2.974782873523e-10       7.836683417871e-14      -2.154004612033e-12       0.000000000000e+00       1.212266750686e-11       1.658250323006e-12      -8.882539855165e-15 
   93       3.010387519349e-10       8.022692732711e-14      -2.231270916372e-12       0.000000000000e+00       1.179143895857e-11       1.620991409992e-12      -8.694735522484e-15 
   94       3.046263017723e-10       8.208336129713e-14      -2.309144173561e-12       0.000000000000e+00       1.147089015857e-11       1.584913588800e-12      -8.494212710359e-15 
   95       3.082411326372e-10       8.393438680130e-14      -2.387559973760e-12       0.000000000000e+00       1.116108093316e-11       1.550015897433e-12      -8.283365734922e-15 
   96       3.118832919556e-10       8.577821393045e-14      -2.466451584827e-12       0.000000000000e+00       1.086197576503e-11       1.516285620155e-12      -8.064806151795e-15 
   97       3.155526720549e-10       8.761301210048e-14      -2.545749934033e-12       0.000000000000e+00       1.057344014061e-11       1.483697843293e-12      -7.841368357794e-15 
   98       3.192490034112e-10       8.943690999908e-14      -2.625383589786e-12       0.000000000000e+00       1.029523689736e-11       1.452215011052e-12      -7.616115192633e-15 
   99       3.229718478969e-10       9.124799553247e-14      -2.705278743348e-12       0.000000000000e+00       1.002702257115e-11       1.421786481317e-12      -7.392343540627e-15 
  100       3.267205920294e-10       9.304431577218e-14      -2.785359190555e-12       0.000000000000e+00       9.768343743546e-12       1.392348081465e-12      -7.173589932391e-15 
  101       3.304944402177e-10       9.482387690177e-14      -2.865546313540e-12       0.000000000000e+00       9.518633389149e-12       1.363821664168e-12      -6.963636146552e-15 
  102       3.342924080110e-10       9.658464416356e-14      -2.945759062447e-12       0.000000000000e+00       9.277207222913e-12       1.336114663208e-12      -6.766514811444e-15 
  103       3.381133153461e-10       9.832454180541e-14      -3.025913937158e-12       0.000000000000e+00       9.043260047477e-12       1.309119649277e-12      -6.586515006815e-15 
  104       3.419560384714e-10       1.000415468521e-13      -3.105929777752e-12       0.000000000000e+00       8.816048328969e-12       1.282739421851e-12      -6.427214544114e-15 
  105       3.458203190198e-10       1.017339849606e-13      -3.185742912279e-12       0.000000000000e+00       8.595473880304e-12       1.256967101820e-12      -6.288415862192e-15 
  106       3.497060521507e-10       1.034002746172e-13      -3.265294030677e-12       0.000000000000e+00       8.381572582419e-12       1.231816080467e-12      -6.168804732052e-15 
  107       3.536130337706e-10       1.050388378480e-13      -3.344523592900e-12       0.000000000000e+00       8.174333609895e-12       1.207295287960e-12      -6.066881583477e-15 
