# dimensionless total [l(l+1)/2pi] C_l's
# for l=2 to 3000, i.e. number of multipoles equal to 2999
#
# -> if you prefer output in CAMB/HealPix/LensPix units/order, set 'format' to 'camb' in input file
# -> if you don't want to see such a header, set 'headers' to 'no' in input file
# -> for CMB lensing (phi), these are C_l^phi-phi for the lensing potential.
#    Remember the conversion factors:
#    C_l^dd (deflection) = l(l+1) C_l^phi-phi
#    C_l^gg (shear/convergence) = 1/4 (l(l+1))^2 C_l^phi-phi
#
# 1:l     2:TT                     3:EE                     4:TE                     5:BB                     6:phiphi                 7:TPhi                   8:Ephi               
    2       1.327599286904e-10       6.324265954714e-15       4.190061267543e-13       0.000000000000e+00       7.828179291966e-09       4.377288417774e-10      -2.201209006011e-12 
    3       1.252965083133e-10       1.059494142439e-14       5.266534485412e-13       0.000000000000e+00       4.839922815541e-09       3.118377977987e-10      -1.928316299564e-12 
    4       1.179213690691e-10       1.220979492875e-14       5.433911989813e-13       0.000000000000e+00       3.367011140966e-09       2.371368115852e-10      -1.528326192701e-12 
    5       1.121134602702e-10       1.111963332120e-14       5.072930038962e-13       0.000000000000e+00       2.512122477524e-09       1.880167642960e-10      -1.123513387605e-12 
    6       1.078711349397e-10       8.431270965184e-15       4.447816694480e-13       0.000000000000e+00       1.962006114454e-09       1.534912794106e-10      -7.565499439673e-13 
    7       1.049517316120e-10       5.487183651271e-15       3.737571595044e-13       0.000000000000e+00       1.583080264645e-09       1.280349835311e-10      -4.490646672344e-13 
    8       1.030037644732e-10       3.200218686581e-15       3.051215380281e-13       0.000000000000e+00       1.308570038582e-09       1.085648150123e-10      -2.102668285979e-13 
    9       1.018613248276e-10       1.861289820701e-15       2.452580783539e-13       0.000000000000e+00       1.102180216073e-09       9.329004081948e-11      -4.093602827681e-14 
   10       1.013444538599e-10       1.292315813307e-15       1.975185727383e-13       0.000000000000e+00       9.423847625562e-10       8.109418220980e-11       6.449163852352e-14 
   11       1.012799012514e-10       1.133477249012e-15       1.632136560314e-13       0.000000000000e+00       7.938841245959e-10       7.139700955586e-11       1.153663541963e-13 
   12       1.016187329378e-10       1.081483912193e-15       1.419295131769e-13       0.000000000000e+00       6.936607370452e-10       6.318723740808e-11       1.257341409635e-13 
   13       1.022223397898e-10       9.927782743930e-16       1.318822397346e-13       0.000000000000e+00       6.113854167270e-10       5.633047238747e-11       1.078501661071e-13 
   14       1.030299280328e-10       8.633232921515e-16       1.305626094759e-13       0.000000000000e+00       5.429230387628e-10       5.051831475696e-11       7.397187014451e-14 
   15       1.040411894701e-10       7.497243029089e-16       1.352613457762e-13       0.000000000000e+00       4.852971091323e-10       4.564544302984e-11       3.469813544793e-14 
   16       1.051996283455e-10       6.975678112137e-16       1.433903627668e-13       0.000000000000e+00       4.363023385725e-10       4.150469725951e-11      -2.096761822189e-15 
   17       1.064768040909e-10       7.112566164086e-16       1.528010239058e-13       0.000000000000e+00       3.942726582958e-10       3.788531451501e-11      -3.130433259486e-14 
   18       1.078573854902e-10       7.611380481780e-16       1.618970420377e-13       0.000000000000e+00       3.577916960422e-10       3.469388527931e-11      -5.020501590552e-14 
   19       1.093414897824e-10       8.215643394399e-16       1.700091433183e-13       0.000000000000e+00       3.262822297236e-10       3.188979257643e-11      -5.849035291733e-14 
   20       1.108839592106e-10       8.698514661347e-16       1.767346638595e-13       0.000000000000e+00       2.985308120289e-10       2.937314179192e-11      -5.748836709679e-14 
   21       1.124947315914e-10       9.137660608076e-16       1.821528687475e-13       0.000000000000e+00       2.741017797734e-10       2.713899045264e-11      -4.947183800247e-14 
   22       1.141716348599e-10       9.732901900667e-16       1.866064896299e-13       0.000000000000e+00       2.524106292276e-10       2.517321585953e-11      -3.767859920646e-14 
   23       1.159081572390e-10       1.062950269273e-15       1.905893074593e-13       0.000000000000e+00       2.331589478625e-10       2.343068021241e-11      -2.471329279027e-14 
   24       1.176774158263e-10       1.193961821077e-15       1.946779156495e-13       0.000000000000e+00       2.159015209438e-10       2.183542603380e-11      -1.317781303287e-14 
   25       1.194789597772e-10       1.363644704624e-15       1.991931375512e-13       0.000000000000e+00       2.004355995306e-10       2.036796337714e-11      -4.570006339552e-15 
   26       1.213085289850e-10       1.563886424669e-15       2.043364055545e-13       0.000000000000e+00       1.864816521127e-10       1.901763679008e-11       1.261283486005e-16 
   27       1.231740813398e-10       1.790610146028e-15       2.100760880028e-13       0.000000000000e+00       1.738724747623e-10       1.779886509883e-11       1.074984103389e-15 
   28       1.250777811800e-10       2.040767299543e-15       2.162343389099e-13       0.000000000000e+00       1.623907636137e-10       1.672171492196e-11      -9.981022310981e-16 
   29       1.270234235988e-10       2.314139313545e-15       2.224819359586e-13       0.000000000000e+00       1.519777098955e-10       1.577005249247e-11      -5.232546393628e-15 
   30       1.290029283317e-10       2.611225648100e-15       2.283493975723e-13       0.000000000000e+00       1.425211804779e-10       1.490466966283e-11      -1.046560945515e-14 
   31       1.309990524708e-10       2.932058635049e-15       2.333123850874e-13       0.000000000000e+00       1.338279669542e-10       1.407946003428e-11      -1.537861913393e-14 
   32       1.330171383695e-10       3.275137234278e-15       2.370889495179e-13       0.000000000000e+00       1.258532451049e-10       1.329619441915e-11      -1.929035483031e-14 
   33       1.350629538310e-10       3.638021935871e-15       2.394471097123e-13       0.000000000000e+00       1.185408410908e-10       1.256901481705e-11      -2.164308143490e-14 
   34       1.371355424776e-10       4.018815361982e-15       2.401764688764e-13       0.000000000000e+00       1.117886405765e-10       1.190722450644e-11      -2.197140924603e-14 
   35       1.392348434838e-10       4.420518684390e-15       2.392624084437e-13       0.000000000000e+00       1.055620714623e-10       1.130590909676e-11      -2.052285213873e-14 
   36       1.413551091163e-10       4.848273307786e-15       2.367761440590e-13       0.000000000000e+00       9.981108332706e-11       1.075109959588e-11      -1.786845472118e-14 
   37       1.434873121163e-10       5.307243369527e-15       2.328219797895e-13       0.000000000000e+00       9.446072619667e-11       1.022676049356e-11      -1.466036979332e-14 
   38       1.456373782802e-10       5.799030186857e-15       2.275028134190e-13       0.000000000000e+00       8.949715702799e-11       9.732403629632e-12      -1.131723124558e-14 
   39       1.478129575812e-10       6.324101052908e-15       2.209476612057e-13       0.000000000000e+00       8.490463164236e-11       9.270737447898e-12      -8.247645881666e-15 
   40       1.500179753139e-10       6.882730759988e-15       2.133238460075e-13       0.000000000000e+00       8.063934608097e-11       8.842726121844e-12      -5.940615207116e-15 
   41       1.522529289256e-10       7.475023365682e-15       2.047823516443e-13       0.000000000000e+00       7.664469555006e-11       8.447581962119e-12      -4.829740539536e-15 
   42       1.545169637763e-10       8.101020836490e-15       1.952669943099e-13       0.000000000000e+00       7.290890922465e-11       8.083163670081e-12      -4.821188549912e-15 
   43       1.568057245944e-10       8.760605388995e-15       1.846469788616e-13       0.000000000000e+00       6.942205783116e-11       7.745410854818e-12      -5.620103243763e-15 
   44       1.591102856991e-10       9.453454514776e-15       1.727668718622e-13       0.000000000000e+00       6.615875854381e-11       7.428024660896e-12      -6.853117562315e-15 
   45       1.614211031910e-10       1.017924525347e-14       1.594663563995e-13       0.000000000000e+00       6.308723909095e-11       7.124327911841e-12      -8.133664569417e-15 
   46       1.637422084834e-10       1.093836802149e-14       1.446503870914e-13       0.000000000000e+00       6.020266028893e-11       6.833896894268e-12      -9.292736555346e-15 
   47       1.660805882150e-10       1.173140584463e-14       1.282372311043e-13       0.000000000000e+00       5.750166313257e-11       6.557631992973e-12      -1.020878243220e-14 
   48       1.684420668686e-10       1.255893713139e-14       1.101385106011e-13       0.000000000000e+00       5.497231869350e-11       6.295858063407e-12      -1.074265573446e-14 
   49       1.708311632649e-10       1.342153616555e-14       9.025880162041e-14       0.000000000000e+00       5.259349084564e-11       6.048276310335e-12      -1.073676021155e-14 
   50       1.732507262503e-10       1.431967257380e-14       6.852459325937e-14       0.000000000000e+00       5.034120080647e-11       5.814204634253e-12      -1.007602807386e-14 
   51       1.757010581141e-10       1.525337641544e-14       4.498136276121e-14       0.000000000000e+00       4.821123589131e-11       5.593487223058e-12      -8.892349994691e-15 
   52       1.781803051740e-10       1.622248303657e-14       1.972215700036e-14       0.000000000000e+00       4.620157608171e-11       5.385748678059e-12      -7.414158425818e-15 
   53       1.806845075403e-10       1.722672198919e-14      -7.138507540021e-15       0.000000000000e+00       4.430562810256e-11       5.190093398479e-12      -5.911451432303e-15 
   54       1.832074452193e-10       1.826571276974e-14      -3.546366422781e-14       0.000000000000e+00       4.251191764477e-11       5.005071035066e-12      -4.697848056976e-15 
   55       1.857429873372e-10       1.933907962159e-14      -6.512864092535e-14       0.000000000000e+00       4.080758855468e-11       4.829089400306e-12      -4.052604994825e-15 
   56       1.882931757884e-10       2.044683910248e-14      -9.613764778088e-14       0.000000000000e+00       3.919062343818e-11       4.661852461065e-12      -3.959271904519e-15 
   57       1.908618801767e-10       2.158910133277e-14      -1.285344348542e-13       0.000000000000e+00       3.766011982079e-11       4.503219063468e-12      -4.305712598054e-15 
   58       1.934524154900e-10       2.276595973597e-14      -1.623695068837e-13       0.000000000000e+00       3.621259318110e-11       4.352770033902e-12      -4.957415628756e-15 
   59       1.960674857283e-10       2.397749141613e-14      -1.977005346366e-13       0.000000000000e+00       3.484181749679e-11       4.209791065992e-12      -5.756431265255e-15 
   60       1.987091275303e-10       2.522375753513e-14      -2.345927662586e-13       0.000000000000e+00       3.353866579070e-11       4.073255607585e-12      -6.520308465478e-15 
   61       2.013788280824e-10       2.650470321506e-14      -2.731053802589e-13       0.000000000000e+00       3.229364385464e-11       3.942114672439e-12      -7.083370469028e-15 
   62       2.040780373034e-10       2.781983013645e-14      -3.132460343226e-13       0.000000000000e+00       3.110551673626e-11       3.816281006179e-12      -7.433772837747e-15 
   63       2.068076711137e-10       2.916845078633e-14      -3.550067980102e-13       0.000000000000e+00       2.997434441795e-11       3.695836464938e-12      -7.605463211982e-15 
   64       2.095678974632e-10       3.054977969346e-14      -3.983772768545e-13       0.000000000000e+00       2.889888696679e-11       3.580737355402e-12      -7.638832172741e-15 
   65       2.123580854886e-10       3.196293061765e-14      -4.433445776502e-13       0.000000000000e+00       2.787653053303e-11       3.470807060281e-12      -7.580993588025e-15 
   66       2.151767546699e-10       3.340691373912e-14      -4.898932737415e-13       0.000000000000e+00       2.690321334861e-11       3.365728663778e-12      -7.486064959153e-15 
   67       2.180215239885e-10       3.488063284783e-14      -5.380053703120e-13       0.000000000000e+00       2.597335172575e-11       3.265037577060e-12      -7.415447767093e-15 
   68       2.208900563949e-10       3.638302163558e-14      -5.876614314649e-13       0.000000000000e+00       2.508133064847e-11       3.168255872544e-12      -7.424087119082e-15 
   69       2.237832280924e-10       3.791349092371e-14      -6.388443042526e-13       0.000000000000e+00       2.422649168991e-11       3.075343379079e-12      -7.515391007655e-15 
   70       2.267025130480e-10       3.947156742267e-14      -6.915360903440e-13       0.000000000000e+00       2.340902748270e-11       2.986325162570e-12      -7.677638163261e-15 
   71       2.296490195689e-10       4.105676338088e-14      -7.457170460892e-13       0.000000000000e+00       2.262847317365e-11       2.901154221487e-12      -7.897113696875e-15 
   72       2.326234649149e-10       4.266857733166e-14      -8.013655775219e-13       0.000000000000e+00       2.188367243752e-11       2.819707736609e-12      -8.158030860654e-15 
   73       2.356261499114e-10       4.430649484023e-14      -8.584582353611e-13       0.000000000000e+00       2.117274349068e-11       2.741783320753e-12      -8.442452808596e-15 
   74       2.386569335617e-10       4.596998925062e-14      -9.169697100135e-13       0.000000000000e+00       2.049304510480e-11       2.667095268514e-12      -8.730214357199e-15 
   75       2.417152076599e-10       4.765852243265e-14      -9.768728265756e-13       0.000000000000e+00       1.984114262058e-11       2.595270806001e-12      -8.998843746120e-15 
   76       2.448003295950e-10       4.937137428481e-14      -1.038136770171e-12       0.000000000000e+00       1.921366020094e-11       2.525944734396e-12      -9.228190428264e-15 
   77       2.479130679996e-10       5.110709369748e-14      -1.100721399396e-12       0.000000000000e+00       1.861009214003e-11       2.459071575649e-12      -9.415455661781e-15 
   78       2.510543758237e-10       5.286394836210e-14      -1.164581882007e-12       0.000000000000e+00       1.803044484558e-11       2.394663799046e-12      -9.562773408168e-15 
   79       2.542249397965e-10       5.464008441348e-14      -1.229670331970e-12       0.000000000000e+00       1.747438052159e-11       2.332696772497e-12      -9.672765425153e-15 
   80       2.574251644346e-10       5.643352366524e-14      -1.295935768178e-12       0.000000000000e+00       1.694120135514e-11       2.273107029924e-12      -9.748559528298e-15 
   81       2.606551560511e-10       5.824216084525e-14      -1.363324073162e-12       0.000000000000e+00       1.642983370312e-11       2.215790538637e-12      -9.793807852606e-15 
   82       2.639147067628e-10       6.006376083115e-14      -1.431777951804e-12       0.000000000000e+00       1.593881227897e-11       2.160600966720e-12      -9.812705114120e-15 
   83       2.672032784993e-10       6.189595588573e-14      -1.501236890054e-12       0.000000000000e+00       1.546626433949e-11       2.107347950407e-12      -9.810006871528e-15 
   84       2.705202932426e-10       6.373648614140e-14      -1.571642864383e-12       0.000000000000e+00       1.501036466706e-11       2.055845159325e-12      -9.789984471797e-15 
   85       2.738660940619e-10       6.558397291562e-14      -1.642958648111e-12       0.000000000000e+00       1.457082181835e-11       2.006067442749e-12      -9.753050827476e-15 
   86       2.772411148189e-10       6.743726912219e-14      -1.715152478293e-12       0.000000000000e+00       1.414761041698e-11       1.958016679325e-12      -9.698606145675e-15 
   87       2.806455774157e-10       6.929522872483e-14      -1.788192629357e-12       0.000000000000e+00       1.374051448047e-11       1.911673413004e-12      -9.626051894242e-15 
   88       2.840794809505e-10       7.115670806089e-14      -1.862047468467e-12       0.000000000000e+00       1.334911951953e-11       1.866995957370e-12      -9.534791192503e-15 
   89       2.875425908720e-10       7.302056716497e-14      -1.936685510887e-12       0.000000000000e+00       1.297280463734e-11       1.823919499955e-12      -9.424229202014e-15 
   90       2.910344281347e-10       7.488567109267e-14      -2.012075475349e-12       0.000000000000e+00       1.261073462885e-11       1.782355206560e-12      -9.293773517305e-15 
   91       2.945542583539e-10       7.675089124419e-14      -2.088186339415e-12       0.000000000000e+00       1.226185208006e-11       1.742189325577e-12      -9.142834556628e-15 
   92       2.981010809606e-10       7.861510668806e-14      -2.164987394841e-12       0.000000000000e+00       1.192486946727e-11       1.703282292305e-12      -8.970825952707e-15 
   93       3.016739419028e-10       8.047710399799e-14      -2.242443065910e-12       0.000000000000e+00       1.159857451660e-11       1.665502748409e-12      -8.777745167932e-15 
   94       3.052729491023e-10       8.233525665589e-14      -2.320496352685e-12       0.000000000000e+00       1.128281597788e-11       1.628837398550e-12      -8.566014382038e-15 
   95       3.088983903819e-10       8.418779965408e-14      -2.399082988396e-12       0.000000000000e+00       1.097765219344e-11       1.593296097056e-12      -8.338918484808e-15 
   96       3.125504172096e-10       8.603292661721e-14      -2.478136438297e-12       0.000000000000e+00       1.068304749585e-11       1.558877994142e-12      -8.100057764675e-15 
   97       3.162290382947e-10       8.786878973294e-14      -2.557587883147e-12       0.000000000000e+00       1.039886860724e-11       1.525571119508e-12      -7.853356264110e-15 
   98       3.199341131845e-10       8.969349968247e-14      -2.637366202680e-12       0.000000000000e+00       1.012488103872e-11       1.493351965926e-12      -7.603070135021e-15 
   99       3.236653458599e-10       9.150512557116e-14      -2.717397959089e-12       0.000000000000e+00       9.860745489672e-12       1.462185072842e-12      -7.353795994140e-15 
  100       3.274222783326e-10       9.330169485908e-14      -2.797607380499e-12       0.000000000000e+00       9.606014247163e-12       1.432022609965e-12      -7.110479278420e-15 
  101       3.312042842403e-10       9.508119329161e-14      -2.877916344442e-12       0.000000000000e+00       9.360127585256e-12       1.402803960863e-12      -6.878422600427e-15 
  102       3.350105624441e-10       9.684156483001e-14      -2.958244361342e-12       0.000000000000e+00       9.122410164391e-12       1.374455306558e-12      -6.663294103732e-15 
  103       3.388401306238e-10       9.858071158204e-14      -3.038508557981e-12       0.000000000000e+00       8.892067430731e-12       1.346889209117e-12      -6.471135818305e-15 
  104       3.426920324773e-10       1.002965910989e-13      -3.118628216011e-12       0.000000000000e+00       8.668365673310e-12       1.320025021369e-12      -6.306972746861e-15 
  105       3.465660049859e-10       1.019875233844e-13      -3.198539121283e-12       0.000000000000e+00       8.451207651792e-12       1.293854152856e-12      -6.170408140958e-15 
  106       3.504618897680e-10       1.036519254218e-13      -3.278181131119e-12       0.000000000000e+00       8.240628376993e-12       1.268382885106e-12      -6.059446017780e-15 
  107       3.543794235179e-10       1.052882184998e-13      -3.357493825509e-12       0.000000000000e+00       8.036616833514e-12       1.243612147523e-12      -5.971830358782e-15 
