# dimensionless total lensed [l(l+1)/2pi] C_l's
# for l=2 to 2500, i.e. number of multipoles equal to 2499
#
# -> if you prefer output in CAMB/HealPix/LensPix units/order, set 'format' to 'camb' in input file
# -> if you don't want to see such a header, set 'headers' to 'no' in input file
# -> for CMB lensing (phi), these are C_l^phi-phi for the lensing potential.
#    Remember the conversion factors:
#    C_l^dd (deflection) = l(l+1) C_l^phi-phi
#    C_l^gg (shear/convergence) = 1/4 (l(l+1))^2 C_l^phi-phi
#
# 1:l     2:TT                     3:EE                     4:TE                     5:BB                     6:phiphi                 7:TPhi                   8:Ephi               
    2       1.331318100351e-10       6.338131390572e-15       4.185686195515e-13       2.007120343160e-19       7.841312389276e-09       4.403953566983e-10      -2.202387513657e-12 
    3       1.255879836723e-10       1.060552664928e-14       5.258315137681e-13       4.016000576496e-19       4.854025786015e-09       3.139063682159e-10      -1.928021253609e-12 
    4       1.181479746754e-10       1.220730505546e-14       5.421901792194e-13       6.697185409003e-19       3.379491127580e-09       2.388412723022e-10      -1.526829795098e-12 
    5       1.122979596664e-10       1.110335223462e-14       5.058879707875e-13       1.005285733358e-18       2.522858544771e-09       1.895021548253e-10      -1.121226946459e-12 
    6       1.080250351156e-10       8.407828846564e-15       4.433451775193e-13       1.408560868743e-18       1.971310115343e-09       1.547954670623e-10      -7.538725179381e-13 
    7       1.050664256282e-10       5.465377826893e-15       3.724409352232e-13       1.879835903815e-18       1.591369710221e-09       1.291487491904e-10      -4.463373526530e-13 
    8       1.030939817230e-10       3.186281889917e-15       3.040578124600e-13       2.419426353467e-18       1.316048449120e-09       1.095272745461e-10      -2.077488701886e-13 
    9       1.019315796396e-10       1.856911034522e-15       2.445138295041e-13       3.027661579596e-18       1.108949881245e-09       9.417416600330e-11      -3.879862825843e-14 
   10       1.014211176101e-10       1.295439877377e-15       1.970417264364e-13       3.704874910995e-18       9.485692091501e-10       8.192364464005e-11       6.615705421356e-14 
   11       1.013486341044e-10       1.140509969820e-15       1.628977544809e-13       4.451393976227e-18       7.991316710629e-10       7.210496454152e-11       1.164970704261e-13 
   12       1.016513213921e-10       1.089389374803e-15       1.417410834648e-13       5.267531620765e-18       6.984897389093e-10       6.382631132967e-11       1.264931379386e-13 
   13       1.022454798172e-10       1.000135625690e-15       1.317945687426e-13       6.153577754042e-18       6.158446221913e-10       5.682965540435e-11       1.080938848071e-13 
   14       1.030729344208e-10       8.701847461354e-16       1.305075896119e-13       7.109792432490e-18       5.470547247533e-10       5.102561822888e-11       7.398071087357e-14 
   15       1.040767285674e-10       7.567951144559e-16       1.351801511114e-13       8.136400432771e-18       4.891386458081e-10       4.615733150970e-11       3.456215886479e-14 
   16       1.052087853870e-10       7.054854775768e-16       1.432771295955e-13       9.233587507370e-18       4.398842563523e-10       4.194733582243e-11      -2.354924652128e-15 
   17       1.065183533541e-10       7.202392895688e-16       1.526296496821e-13       1.040149844494e-17       3.976187157045e-10       3.821442270427e-11      -3.166266931301e-14 
   18       1.078970285859e-10       7.710246149883e-16       1.616534626178e-13       1.164023610350e-17       3.609235678063e-10       3.496352474538e-11      -5.054815893847e-14 
   19       1.093543179680e-10       8.321650009816e-16       1.696942557789e-13       1.294986754622e-17       3.292215580428e-10       3.215536853527e-11      -5.873175128269e-14 
   20       1.109023133343e-10       8.810801574471e-16       1.763595662991e-13       1.433041787855e-17       3.012938216444e-10       2.964604306526e-11      -5.763259134692e-14 
   21       1.125266475764e-10       9.256575742053e-16       1.817258938761e-13       1.578188816340e-17       2.767036307775e-10       2.739971822259e-11      -4.956471237179e-14 
   22       1.141796417443e-10       9.859922646129e-16       1.861296824137e-13       1.730424810042e-17       2.548644195047e-10       2.538257372088e-11      -3.778224455233e-14 
   23       1.158812243915e-10       1.076546853656e-15       1.900705786700e-13       1.889745749286e-17       2.354769937868e-10       2.358525919485e-11      -2.485035935540e-14 
   24       1.176500472528e-10       1.208424646256e-15       1.941340433764e-13       2.056145888660e-17       2.180941879217e-10       2.198017729512e-11      -1.331883805466e-14 
   25       1.194728529240e-10       1.378977021153e-15       1.986396716206e-13       2.229620279012e-17       2.025123668918e-10       2.052950801332e-11      -4.707888923073e-15 
   26       1.213147517447e-10       1.580162522539e-15       2.037838360858e-13       2.410163866363e-17       1.884504823030e-10       1.918366965161e-11      -4.426287992604e-17 
   27       1.231794163260e-10       1.807896015653e-15       2.095317706174e-13       2.597773712053e-17       1.757409892536e-10       1.795071056350e-11       8.400793053210e-16 
   28       1.250733510476e-10       2.059085828089e-15       2.157041608525e-13       2.792448416732e-17       1.641659573945e-10       1.684565936614e-11      -1.309158263310e-15 
   29       1.270039963974e-10       2.333447827535e-15       2.219776964072e-13       2.994190727346e-17       1.536664543019e-10       1.586029543027e-11      -5.613815956787e-15 
   30       1.289676097978e-10       2.631395706301e-15       2.278924707236e-13       3.203006043290e-17       1.441295808411e-10       1.496619441502e-11      -1.089113686473e-14 
   31       1.309514646313e-10       2.952882157049e-15       2.329302572714e-13       3.418902415824e-17       1.353607476708e-10       1.412746412376e-11      -1.580313819000e-14 
   32       1.329616482669e-10       3.296423598613e-15       2.367919470747e-13       3.641892391314e-17       1.273150467819e-10       1.334328682232e-11      -1.966911165667e-14 
   33       1.350033732396e-10       3.659639757868e-15       2.392169064774e-13       3.871992444638e-17       1.199361928241e-10       1.261989955601e-11      -2.193996404554e-14 
   34       1.370750205806e-10       4.040702640221e-15       2.399685691782e-13       4.109222528883e-17       1.131215818400e-10       1.195845474276e-11      -2.216402779782e-14 
   35       1.391764528826e-10       4.442659285922e-15       2.390411067090e-13       4.353604914844e-17       1.068364912367e-10       1.135290588557e-11      -2.061317257227e-14 
   36       1.413019609841e-10       4.870696728578e-15       2.365287119550e-13       4.605165502900e-17       1.010305137739e-10       1.079040588431e-11      -1.789050204020e-14 
   37       1.434421740523e-10       5.330011328539e-15       2.325598633992e-13       4.863932753339e-17       9.562812858298e-11       1.025623072680e-11      -1.467731803331e-14 
   38       1.456012352659e-10       5.822145634319e-15       2.272461172960e-13       5.129931875503e-17       9.061547064776e-11       9.750779785623e-12      -1.138558266638e-14 
   39       1.477842403479e-10       6.347467984263e-15       2.207210975166e-13       5.403189097112e-17       8.597676307526e-11       9.277665586918e-12      -8.403289424891e-15 
   40       1.499920297213e-10       6.906133085889e-15       2.131571806468e-13       5.683733440875e-17       8.166792586580e-11       8.838952788781e-12      -6.193215331290e-15 
   41       1.522225130348e-10       7.498151044345e-15       2.047085519119e-13       5.971594009356e-17       7.763195650017e-11       8.434906015805e-12      -5.162524262989e-15 
   42       1.544763081765e-10       8.123659474245e-15       1.953125425726e-13       6.266790363693e-17       7.385703049377e-11       8.063529588890e-12      -5.209941122329e-15 
   43       1.567521349506e-10       8.782713362484e-15       1.848274971810e-13       6.569339301890e-17       7.033315759759e-11       7.720601427968e-12      -6.038577729876e-15 
   44       1.590448251193e-10       9.475198083671e-15       1.730847007374e-13       6.879257449137e-17       6.703474398509e-11       7.399580757102e-12      -7.273233170199e-15 
   45       1.613482930923e-10       1.020097197781e-14       1.599114159696e-13       7.196558591953e-17       6.392974515596e-11       7.093504135395e-12      -8.527186622012e-15 
   46       1.636663398195e-10       1.096036836668e-14       1.452123918249e-13       7.521244796784e-17       6.101331538325e-11       6.801750890761e-12      -9.637873985346e-15 
   47       1.660044777098e-10       1.175382669066e-14       1.289097027853e-13       7.853312588178e-17       5.828210478930e-11       6.525010537826e-12      -1.049337804890e-14 
   48       1.683667292163e-10       1.258175187000e-14       1.109197142843e-13       8.192755180421e-17       5.572411042046e-11       6.263342006992e-12      -1.096615086322e-14 
   49       1.707554648857e-10       1.344451313653e-14       9.115273629790e-14       8.539562297394e-17       5.331803254326e-11       6.016122313660e-12      -1.091226690633e-14 
   50       1.731716335157e-10       1.434239658530e-14       6.954122360390e-14       8.893719691032e-17       5.103969716471e-11       5.782358178687e-12      -1.022863725981e-14 
   51       1.756159020029e-10       1.527545035658e-14       4.613420431081e-14       9.255207960546e-17       4.888487219283e-11       5.561839695683e-12      -9.044693329212e-15 
   52       1.780875449519e-10       1.624359541080e-14       2.102788409619e-14       9.624003101304e-17       4.685153178338e-11       5.354211085265e-12      -7.581442553745e-15 
   53       1.805839395143e-10       1.724666486891e-14      -5.659686933396e-15       1.000007658850e-16       4.493302761155e-11       5.158601675214e-12      -6.099988640391e-15 
   54       1.831004218900e-10       1.828440066621e-14      -3.378761727886e-14       1.038339518283e-16       4.311777769631e-11       4.973591649751e-12      -4.903512306491e-15 
   55       1.856321997395e-10       1.935653600791e-14      -6.322859707492e-14       1.077392461560e-16       4.139280272657e-11       4.797612168617e-12      -4.261703856693e-15 
   56       1.881809745028e-10       2.046307438879e-14      -9.399104691116e-14       1.117164216123e-16       3.975607666438e-11       4.630340587868e-12      -4.157539962274e-15 
   57       1.907497128572e-10       2.160407402690e-14      -1.261255671406e-13       1.157652684770e-16       3.820669924816e-11       4.471591849057e-12      -4.481070223791e-15 
   58       1.933406729242e-10       2.277956813158e-14      -1.596906274060e-13       1.198855580843e-16       3.674115954093e-11       4.320897526575e-12      -5.100435923462e-15 
   59       1.959553408707e-10       2.398956490015e-14      -1.947530275977e-13       1.240770423919e-16       3.535317465740e-11       4.177488500431e-12      -5.860829410658e-15 
   60       1.985943675111e-10       2.523404751472e-14      -2.313883588124e-13       1.283394535485e-16       3.403352849094e-11       4.040277629038e-12      -6.583453487379e-15 
   61       2.012580541322e-10       2.651291386990e-14      -2.696649784386e-13       1.326725604372e-16       3.277263288769e-11       3.908167621288e-12      -7.106327561352e-15 
   62       2.039480808244e-10       2.782577995415e-14      -3.095906893355e-13       1.370763541131e-16       3.156924779936e-11       3.781094605434e-12      -7.419763535677e-15 
   63       2.066660553570e-10       2.917213212866e-14      -3.511548557339e-13       1.415509034121e-16       3.042344118830e-11       3.659189119010e-12      -7.559590738660e-15 
   64       2.094129531265e-10       3.055138162438e-14      -3.943437720963e-13       1.460963029978e-16       2.933396589069e-11       3.542464709271e-12      -7.568273970010e-15 
   65       2.121890711847e-10       3.196286262644e-14      -4.391406009901e-13       1.507126747377e-16       2.829818472471e-11       3.430810924296e-12      -7.495200652608e-15 
   66       2.149939822670e-10       3.340583035864e-14      -4.855253109623e-13       1.554001690788e-16       2.731199559873e-11       3.323986304103e-12      -7.396967984284e-15 
   67       2.178264888205e-10       3.487945916789e-14      -5.334746144129e-13       1.601589664239e-16       2.636975661951e-11       3.221611371753e-12      -7.337670089597e-15 
   68       2.206852966217e-10       3.638289381038e-14      -5.829638818897e-13       1.649892724151e-16       2.546579362750e-11       3.123287361312e-12      -7.374181448820e-15 
   69       2.235712968886e-10       3.791541965924e-14      -6.339734742626e-13       1.698912996001e-16       2.459944492193e-11       3.028996004639e-12      -7.507902593645e-15 
   70       2.264856661233e-10       3.947632370269e-14      -6.864835879037e-13       1.748652845057e-16       2.377090888759e-11       2.938768533053e-12      -7.723707746701e-15 
   71       2.294291603635e-10       4.106484384901e-14      -7.404723804216e-13       1.799114945998e-16       2.297971820756e-11       2.852563382860e-12      -8.003988583606e-15 
   72       2.324020876140e-10       4.268016837159e-14      -7.959159590825e-13       1.850302295116e-16       2.222470544268e-11       2.770262402244e-12      -8.328557657821e-15 
   73       2.354042802790e-10       4.432143535407e-14      -8.527883692329e-13       1.902218222517e-16       2.150396861107e-11       2.691667058151e-12      -8.674551825498e-15 
   74       2.384350675942e-10       4.598773213544e-14      -9.110615827206e-13       1.954866404322e-16       2.081483676758e-11       2.616494643171e-12      -9.016335670330e-15 
   75       2.414932480584e-10       4.767809475519e-14      -9.707054863170e-13       2.008250874871e-16       2.015383558325e-11       2.544374482427e-12      -9.325404928402e-15 
   76       2.445776296456e-10       4.939144729659e-14      -1.031687070983e-12       2.062375347597e-16       1.951755015129e-11       2.474939374159e-12      -9.576464921933e-15 
   77       2.476888251078e-10       5.112640837342e-14      -1.093967854582e-12       2.117241007719e-16       1.890547113574e-11       2.408127546919e-12      -9.767159012679e-15 
   78       2.508277354900e-10       5.288144818310e-14      -1.157505965968e-12       2.172848337332e-16       1.831760750792e-11       2.343929130228e-12      -9.901778983979e-15 
   79       2.539949957258e-10       5.465494371955e-14      -1.222256874932e-12       2.229197769088e-16       1.775361960031e-11       2.282293995261e-12      -9.985438749564e-15 
   80       2.571909587127e-10       5.644517698589e-14      -1.288173364239e-12       2.286289684210e-16       1.721280308435e-11       2.223129914580e-12      -1.002410440197e-14 
   81       2.604156793864e-10       5.825033320706e-14      -1.355205501661e-12       2.344124410530e-16       1.669407294833e-11       2.166300721862e-12      -1.002462426094e-14 
   82       2.636688987962e-10       6.006849904256e-14      -1.423300612014e-12       2.402702220505e-16       1.619594747516e-11       2.111624471625e-12      -9.994758921833e-15 
   83       2.669500281792e-10       6.189766079910e-14      -1.492403249189e-12       2.462023329247e-16       1.571653222025e-11       2.058871598965e-12      -9.943211304052e-15 
   84       2.702584715841e-10       6.373587168318e-14      -1.562459927868e-12       2.522087983172e-16       1.525398067061e-11       2.007821941829e-12      -9.877868478470e-15 
   85       2.735946900780e-10       6.558178933155e-14      -1.633434281218e-12       2.582896747163e-16       1.480799906306e-11       1.958450700317e-12      -9.800126439475e-15 
   86       2.769592855847e-10       6.743422452928e-14      -1.705294376431e-12       2.644450261616e-16       1.437856281709e-11       1.910770074787e-12      -9.709675218227e-15 
   87       2.803526679373e-10       6.929198113101e-14      -1.778008229722e-12       2.706749155599e-16       1.396545414131e-11       1.864772305831e-12      -9.606203447220e-15 
   88       2.837750446435e-10       7.115385711463e-14      -1.851543858365e-12       2.769794046404e-16       1.356825402277e-11       1.820428823296e-12      -9.489398354557e-15 
   89       2.872264106493e-10       7.301864563497e-14      -1.925869332713e-12       2.833585539094e-16       1.318633421623e-11       1.777689395296e-12      -9.358945758226e-15 
   90       2.907065381047e-10       7.488513607751e-14      -2.000952828235e-12       2.898124226052e-16       1.281884923346e-11       1.736481277229e-12      -9.214530060376e-15 
   91       2.942149661275e-10       7.675211511202e-14      -2.076762677541e-12       2.963410686529e-16       1.246472833248e-11       1.696708360794e-12      -9.055834241590e-15 
   92       2.977509905686e-10       7.861836774628e-14      -2.153267422410e-12       3.029445486196e-16       1.212266750686e-11       1.658250323006e-12      -8.882539855165e-15 
   93       3.013139072374e-10       8.048259823668e-14      -2.230430759701e-12       3.096229995812e-16       1.179143895857e-11       1.620991409992e-12      -8.694735522484e-15 
   94       3.049038056554e-10       8.234317692465e-14      -2.308195396541e-12       3.163768989080e-16       1.147089015857e-11       1.584913588800e-12      -8.494212710359e-15 
   95       3.085208763148e-10       8.419835709539e-14      -2.386496851851e-12       3.232068436495e-16       1.116108093316e-11       1.550015897433e-12      -8.283365734922e-15 
   96       3.121651611885e-10       8.604635168255e-14      -2.465268328297e-12       3.301134731680e-16       1.086197576503e-11       1.516285620155e-12      -8.064806151795e-15 
   97       3.158365469747e-10       8.788533322176e-14      -2.544440694221e-12       3.370974702178e-16       1.057344014061e-11       1.483697843293e-12      -7.841368357794e-15 
   98       3.195347583403e-10       8.971343380422e-14      -2.623942465589e-12       3.441595620245e-16       1.029523689736e-11       1.452215011052e-12      -7.616115192633e-15 
   99       3.232593511650e-10       9.152874503029e-14      -2.703699787920e-12       3.513005213643e-16       1.002702257115e-11       1.421786481317e-12      -7.392343540627e-15 
  100       3.270097057850e-10       9.332931796304e-14      -2.783636418230e-12       3.585211676433e-16       9.768343743546e-12       1.392348081465e-12      -7.173589932391e-15 
  101       3.307850202372e-10       9.511316308187e-14      -2.863673706968e-12       3.658223679767e-16       9.518633389149e-12       1.363821664168e-12      -6.963636146552e-15 
  102       3.345843035029e-10       9.687825023602e-14      -2.943730579954e-12       3.732050382680e-16       9.277207222913e-12       1.336114663208e-12      -6.766514811444e-15 
  103       3.384063687517e-10       9.862250859819e-14      -3.023723520320e-12       3.806701442885e-16       9.043260047477e-12       1.309119649277e-12      -6.586515006815e-15 
  104       3.422500858024e-10       1.003439204319e-13      -3.103571351037e-12       3.882186105173e-16       8.816048328969e-12       1.282739421851e-12      -6.427214544114e-15 
  105       3.461151918977e-10       1.020408169189e-13      -3.183210357187e-12       3.958510303129e-16       8.595473880304e-12       1.256967101820e-12      -6.288415862192e-15 
  106       3.500015783680e-10       1.037116223935e-13      -3.262581182330e-12       4.035679184200e-16       8.381572582419e-12       1.231816080467e-12      -6.168804732052e-15 
  107       3.539090373343e-10       1.053547650694e-13      -3.341624244599e-12       4.113697997772e-16       8.174333609895e-12       1.207295287960e-12      -6.066881583477e-15 
