# dimensionless total [l(l+1)/2pi] C_l's
# for l=2 to 3000, i.e. number of multipoles equal to 2999
#
# -> if you prefer output in CAMB/HealPix/LensPix units/order, set 'format' to 'camb' in input file
# -> if you don't want to see such a header, set 'headers' to 'no' in input file
# -> for CMB lensing (phi), these are C_l^phi-phi for the lensing potential.
#    Remember the conversion factors:
#    C_l^dd (deflection) = l(l+1) C_l^phi-phi
#    C_l^gg (shear/convergence) = 1/4 (l(l+1))^2 C_l^phi-phi
#
# 1:l     2:TT                     3:EE                     4:TE                     5:BB                     6:phiphi                 7:TPhi                   8:Ephi               
    2       1.287145190790e-10       3.744421848190e-15       8.177157873176e-14       0.000000000000e+00       5.393512737341e-09       5.265846050479e-10      -1.182030024823e-12 
    3       1.286676732534e-10       7.622699293167e-15       2.110996702843e-13       0.000000000000e+00       3.325219442810e-09       3.662258423829e-10      -1.156397454806e-12 
    4       1.256795904714e-10       9.826752573613e-15       2.936745547831e-13       0.000000000000e+00       2.302135954983e-09       2.780672150109e-10      -9.565011040821e-13 
    5       1.217156743511e-10       9.861485497272e-15       3.259042835868e-13       0.000000000000e+00       1.707965883754e-09       2.220063870328e-10      -7.201366855626e-13 
    6       1.176436287686e-10       8.465566877687e-15       3.365656611095e-13       0.000000000000e+00       1.327336023390e-09       1.825810559688e-10      -4.986773393443e-13 
    7       1.141326264779e-10       6.431383861663e-15       3.342702811710e-13       0.000000000000e+00       1.066637565925e-09       1.534546074385e-10      -3.039830923903e-13 
    8       1.113629038276e-10       4.468933636297e-15       3.213344809588e-13       0.000000000000e+00       8.786616472792e-10       1.311918451987e-10      -1.435577091221e-13 
    9       1.092883582639e-10       3.013284187930e-15       3.004017523720e-13       0.000000000000e+00       7.376946015646e-10       1.137066109920e-10      -2.112246243922e-14 
   10       1.078237649487e-10       2.158331495234e-15       2.747922951834e-13       0.000000000000e+00       6.288614146837e-10       9.967378808394e-11       6.369939170789e-14 
   11       1.068593128259e-10       1.758122264451e-15       2.477090971626e-13       0.000000000000e+00       5.289903146141e-10       8.943806431802e-11       1.176317028411e-13 
   12       1.063231634148e-10       1.587692711122e-15       2.217635130813e-13       0.000000000000e+00       4.609948097912e-10       7.967240799687e-11       1.389134932397e-13 
   13       1.061202624712e-10       1.466360112746e-15       1.987695281408e-13       0.000000000000e+00       4.053159041799e-10       7.150615165783e-11       1.384494528197e-13 
   14       1.062120145406e-10       1.307750301186e-15       1.797863906322e-13       0.000000000000e+00       3.591033042449e-10       6.459663309686e-11       1.228067715078e-13 
   15       1.065113242386e-10       1.109593397950e-15       1.651811153494e-13       0.000000000000e+00       3.202242543886e-10       5.864656038662e-11       9.846478066811e-14 
   16       1.070259497559e-10       9.073885841918e-16       1.550886081416e-13       0.000000000000e+00       2.873754640888e-10       5.361113464665e-11       7.032894379447e-14 
   17       1.076735320554e-10       7.459094936346e-16       1.488362861126e-13       0.000000000000e+00       2.591155804192e-10       4.918346403240e-11       4.328943570379e-14 
   18       1.084552923961e-10       6.403892421850e-16       1.459799160310e-13       0.000000000000e+00       2.348759593557e-10       4.529368010463e-11       2.015582830197e-14 
   19       1.093361875860e-10       5.893953315352e-16       1.457457080405e-13       0.000000000000e+00       2.137307646050e-10       4.185227337217e-11       2.757346891559e-15 
   20       1.103055610561e-10       5.779914909619e-16       1.475662115856e-13       0.000000000000e+00       1.952548403862e-10       3.880419125392e-11      -8.411441744268e-15 
   21       1.113257265683e-10       5.841157388201e-16       1.507469670685e-13       0.000000000000e+00       1.788627672098e-10       3.605334486562e-11      -1.375514876694e-14 
   22       1.124195649881e-10       6.040303741707e-16       1.549656898644e-13       0.000000000000e+00       1.644643826547e-10       3.359188155363e-11      -1.400681408654e-14 
   23       1.135939794798e-10       6.392797403467e-16       1.598519154323e-13       0.000000000000e+00       1.518174935869e-10       3.139050950321e-11      -1.057809335565e-14 
   24       1.148206961394e-10       6.909277462798e-16       1.649220670436e-13       0.000000000000e+00       1.404071451225e-10       2.937582555297e-11      -5.389712284126e-15 
   25       1.161028594917e-10       7.602919018273e-16       1.700750387115e-13       0.000000000000e+00       1.301517434939e-10       2.754143197917e-11       4.420611811383e-16 
   26       1.174294727852e-10       8.484083169970e-16       1.753077652448e-13       0.000000000000e+00       1.209640591234e-10       2.587820298559e-11       5.821227300736e-15 
   27       1.187703979306e-10       9.555391259663e-16       1.806040900352e-13       0.000000000000e+00       1.126315236122e-10       2.435542087763e-11       9.587191980143e-15 
   28       1.201348712929e-10       1.080318758520e-15       1.859833354074e-13       0.000000000000e+00       1.050991881870e-10       2.296665405857e-11       1.146417489189e-14 
   29       1.215326463732e-10       1.220082615183e-15       1.914682567344e-13       0.000000000000e+00       9.827852482417e-11       2.169832032272e-11       1.151452553790e-14 
   30       1.229627669250e-10       1.371883527170e-15       1.970594729564e-13       0.000000000000e+00       9.201818350880e-11       2.052537423187e-11       9.926892754212e-15 
   31       1.244340549324e-10       1.535715466554e-15       2.026946097158e-13       0.000000000000e+00       8.629862340418e-11       1.944531255891e-11       7.064500973849e-15 
   32       1.259496147924e-10       1.712503136109e-15       2.082685340302e-13       0.000000000000e+00       8.109961671917e-11       1.845487133746e-11       3.457526568447e-15 
   33       1.274995480031e-10       1.903285840387e-15       2.136396495686e-13       0.000000000000e+00       7.634239396243e-11       1.753979909917e-11      -1.917709968930e-16 
   34       1.290674816035e-10       2.109082762557e-15       2.186486745169e-13       0.000000000000e+00       7.192120693814e-11       1.668083076175e-11      -3.162000322414e-15 
   35       1.306572185515e-10       2.330404411016e-15       2.231920377518e-13       0.000000000000e+00       6.782847673750e-11       1.587738021652e-11      -5.277903747651e-15 
   36       1.322737646877e-10       2.567566321893e-15       2.271714363605e-13       0.000000000000e+00       6.406775207647e-11       1.513105847703e-11      -6.540762971666e-15 
   37       1.339153064128e-10       2.820810200878e-15       2.304731174107e-13       0.000000000000e+00       6.061759824345e-11       1.443883465725e-11      -6.983193525063e-15 
   38       1.355724158377e-10       3.090297975017e-15       2.329667777240e-13       0.000000000000e+00       5.742910024959e-11       1.379256121737e-11      -6.672035884169e-15 
   39       1.372331364556e-10       3.376225063215e-15       2.345339588152e-13       0.000000000000e+00       5.444269724690e-11       1.318206459359e-11      -5.716471117877e-15 
   40       1.389022423820e-10       3.679220994429e-15       2.351675327410e-13       0.000000000000e+00       5.165161025851e-11       1.260682931745e-11      -4.288728997803e-15 
   41       1.405872274062e-10       4.000075523030e-15       2.349043133821e-13       0.000000000000e+00       4.905589954374e-11       1.206751028965e-11      -2.615237310235e-15 
   42       1.422926624797e-10       4.339634401569e-15       2.337996416126e-13       0.000000000000e+00       4.664403184424e-11       1.156251886956e-11      -9.752060799399e-16 
   43       1.440198532133e-10       4.698802603241e-15       2.319285539332e-13       0.000000000000e+00       4.439187055488e-11       1.108782238132e-11       2.960794285271e-16 
   44       1.457680165094e-10       5.078448522389e-15       2.293628790410e-13       0.000000000000e+00       4.227097659894e-11       1.063848095520e-11       8.927580072789e-16 
   45       1.475390478753e-10       5.479074123123e-15       2.260914367972e-13       0.000000000000e+00       4.027891642255e-11       1.021429079800e-11       8.337645053783e-16 
   46       1.493336296699e-10       5.901049513069e-15       2.220774479516e-13       0.000000000000e+00       3.841649897457e-11       9.815524652046e-12       2.520857318250e-16 
   47       1.511495950359e-10       6.344700484527e-15       2.172802005016e-13       0.000000000000e+00       3.667883767178e-11       9.441251933894e-12      -6.841405326454e-16 
   48       1.529816774654e-10       6.810305735595e-15       2.116547594117e-13       0.000000000000e+00       3.505490485479e-11       9.089243533509e-12      -1.769537185493e-15 
   49       1.548212603666e-10       7.298094091308e-15       2.051516763338e-13       0.000000000000e+00       3.352708624409e-11       8.755876613379e-12      -2.759399452307e-15 
   50       1.566596716677e-10       7.808263142824e-15       1.977224851852e-13       0.000000000000e+00       3.207648414321e-11       8.437263987707e-12      -3.426033102670e-15 
   51       1.584997029081e-10       8.341047576538e-15       1.893386209179e-13       0.000000000000e+00       3.070155773556e-11       8.133224527364e-12      -3.750642299002e-15 
   52       1.603467839843e-10       8.896664588687e-15       1.799771342687e-13       0.000000000000e+00       2.940377233532e-11       7.844225915944e-12      -3.779917694058e-15 
   53       1.622056297654e-10       9.475292359376e-15       1.696153371511e-13       0.000000000000e+00       2.818212199882e-11       7.570217581180e-12      -3.572807651388e-15 
   54       1.640801564850e-10       1.007706828162e-14       1.582307846507e-13       0.000000000000e+00       2.703295450983e-11       7.310593121371e-12      -3.201179380718e-15 
   55       1.659733981322e-10       1.070208719036e-14       1.458012570208e-13       0.000000000000e+00       2.594979636483e-11       7.064152731819e-12      -2.750480073343e-15 
   56       1.678874228438e-10       1.135039959155e-14       1.323047416783e-13       0.000000000000e+00       2.492317775825e-11       6.829065631254e-12      -2.320398037513e-15 
   57       1.698235207571e-10       1.202205116354e-14       1.177231595725e-13       0.000000000000e+00       2.394334203585e-11       6.603428590894e-12      -2.003179325819e-15 
   58       1.717830109867e-10       1.271721638857e-14       1.020546313547e-13       0.000000000000e+00       2.300953375932e-11       6.387183995800e-12      -1.810983203997e-15 
   59       1.737664814149e-10       1.343609391292e-14       8.530412675450e-14       0.000000000000e+00       2.212263433384e-11       6.180596522483e-12      -1.732235586943e-15 
   60       1.757734620315e-10       1.417886782303e-14       6.748009408026e-14       0.000000000000e+00       2.128240440850e-11       5.983681849732e-12      -1.752296146181e-15 
   61       1.778023511792e-10       1.494570737264e-14       4.859457812724e-14       0.000000000000e+00       2.048741356102e-11       5.796190722167e-12      -1.853308392329e-15 
   62       1.798503417988e-10       1.573676670991e-14       2.866333808478e-14       0.000000000000e+00       1.973496998235e-11       5.617593013787e-12      -2.014049757561e-15 
   63       1.819133476738e-10       1.655218460457e-14       7.705965443888e-15       0.000000000000e+00       1.902105016135e-11       5.447061791523e-12      -2.209781678073e-15 
   64       1.839859296755e-10       1.739208417503e-14      -1.425399809527e-14       0.000000000000e+00       1.834022856945e-11       5.283457378784e-12      -2.412099676554e-15 
   65       1.860630333488e-10       1.825655095176e-14      -3.719608938468e-14       0.000000000000e+00       1.768712713297e-11       5.125647484172e-12      -2.595137787907e-15 
   66       1.881457950476e-10       1.914556228051e-14      -6.112600510733e-14       0.000000000000e+00       1.706127838230e-11       4.973582184241e-12      -2.756045817553e-15 
   67       1.902368372277e-10       2.005904243597e-14      -8.605721238644e-14       0.000000000000e+00       1.646316958157e-11       4.827418788289e-12      -2.898593634393e-15 
   68       1.923385429515e-10       2.099688210379e-14      -1.120043139157e-13       0.000000000000e+00       1.589278653702e-11       4.687199448084e-12      -3.027226803202e-15 
   69       1.944530328006e-10       2.195893750176e-14      -1.389831299584e-13       0.000000000000e+00       1.534958579316e-11       4.552844621838e-12      -3.147094410954e-15 
   70       1.965821417868e-10       2.294502950095e-14      -1.670107803473e-13       0.000000000000e+00       1.483246682901e-11       4.424146538182e-12      -3.264076893162e-15 
   71       1.987273962648e-10       2.395494274686e-14      -1.961057664832e-13       0.000000000000e+00       1.433974425428e-11       4.300762660139e-12      -3.384813860205e-15 
   72       2.008899908432e-10       2.498842478058e-14      -2.262880533348e-13       0.000000000000e+00       1.386912000557e-11       4.182209149096e-12      -3.516731923668e-15 
   73       2.030707652973e-10       2.604518515991e-14      -2.575791514378e-13       0.000000000000e+00       1.341765554260e-11       4.067854328785e-12      -3.668072522670e-15 
   74       2.052704335445e-10       2.712492351163e-14      -2.899976634701e-13       0.000000000000e+00       1.298253324940e-11       3.957092644739e-12      -3.845795427581e-15 
   75       2.074903712504e-10       2.822742170120e-14      -3.235447793456e-13       0.000000000000e+00       1.256356688455e-11       3.849918640787e-12      -4.048774285509e-15 
   76       2.097319343752e-10       2.935246738909e-14      -3.582162042519e-13       0.000000000000e+00       1.216111245915e-11       3.746448988325e-12      -4.273372947649e-15 
   77       2.119962028242e-10       3.049982637897e-14      -3.940064377552e-13       0.000000000000e+00       1.177531009842e-11       3.646748918788e-12      -4.515439155252e-15 
   78       2.142839628098e-10       3.166924236436e-14      -4.309087577372e-13       0.000000000000e+00       1.140607330182e-11       3.550829590231e-12      -4.770286434653e-15 
   79       2.165956892129e-10       3.286043667536e-14      -4.689152043305e-13       0.000000000000e+00       1.105307820310e-11       3.458645453904e-12      -5.032675992313e-15 
   80       2.189315279453e-10       3.407310802530e-14      -5.080165638551e-13       0.000000000000e+00       1.071575283046e-11       3.370091620839e-12      -5.296798609844e-15 
   81       2.212912783113e-10       3.530693225746e-14      -5.482023527544e-13       0.000000000000e+00       1.039326636656e-11       3.285001228422e-12      -5.556256539046e-15 
   82       2.236743753698e-10       3.656156209173e-14      -5.894608015311e-13       0.000000000000e+00       1.008451840870e-11       3.203142806977e-12      -5.804045396942e-15 
   83       2.260798722964e-10       3.783662687130e-14      -6.317788386837e-13       0.000000000000e+00       9.788128228825e-12       3.124217646343e-12      -6.032536060809e-15 
   84       2.285064227445e-10       3.913173230938e-14      -6.751420746421e-13       0.000000000000e+00       9.502424033704e-12       3.047857162453e-12      -6.233456563212e-15 
   85       2.309526982069e-10       4.044643595697e-14      -7.195352409346e-13       0.000000000000e+00       9.225846227751e-12       2.973716319731e-12      -6.399587870595e-15 
   86       2.334187572544e-10       4.178016954283e-14      -7.649436255055e-13       0.000000000000e+00       8.958256611416e-12       2.901777246208e-12      -6.530210042363e-15 
   87       2.359048694096e-10       4.313230337970e-14      -8.113518442810e-13       0.000000000000e+00       8.699825068618e-12       2.832090784148e-12      -6.626519709351e-15 
   88       2.384110897648e-10       4.450216886862e-14      -8.587433983971e-13       0.000000000000e+00       8.450630762944e-12       2.764683819090e-12      -6.690005466783e-15 
   89       2.409372484843e-10       4.588905784714e-14      -9.071006656082e-13       0.000000000000e+00       8.210658193958e-12       2.699558223262e-12      -6.722457904194e-15 
   90       2.434829403075e-10       4.729222193737e-14      -9.564048916965e-13       0.000000000000e+00       7.979793253509e-12       2.636689799001e-12      -6.725979635355e-15 
   91       2.460475140516e-10       4.871087189418e-14      -1.006636181881e-12       0.000000000000e+00       7.757819282043e-12       2.576027222173e-12      -6.702995328186e-15 
   92       2.486300621146e-10       5.014417695326e-14      -1.057773492227e-12       0.000000000000e+00       7.544413124910e-12       2.517490985592e-12      -6.656261734685e-15 
   93       2.512294099776e-10       5.159126417931e-14      -1.109794621055e-12       0.000000000000e+00       7.339141188674e-12       2.460972342437e-12      -6.588877720843e-15 
   94       2.538441057083e-10       5.305121781413e-14      -1.162676200348e-12       0.000000000000e+00       7.141455497420e-12       2.406332249675e-12      -6.504294296568e-15 
   95       2.564724094631e-10       5.452307862476e-14      -1.216393687165e-12       0.000000000000e+00       6.950689749067e-12       2.353400311475e-12      -6.406324645603e-15 
   96       2.591122829902e-10       5.600584325161e-14      -1.270921355045e-12       0.000000000000e+00       6.766055371672e-12       2.301973722631e-12      -6.299154155450e-15 
   97       2.617620161593e-10       5.749852476892e-14      -1.326233219779e-12       0.000000000000e+00       6.586828406661e-12       2.251866820906e-12      -6.186641942096e-15 
   98       2.644222326219e-10       5.900034576684e-14      -1.382305988016e-12       0.000000000000e+00       6.412949522494e-12       2.203070205098e-12      -6.070088497511e-15 
   99       2.670941557355e-10       6.051057207977e-14      -1.439116520616e-12       0.000000000000e+00       6.244503758295e-12       2.155612747929e-12      -5.950162693445e-15 
  100       2.697789949489e-10       6.202845418046e-14      -1.496640939433e-12       0.000000000000e+00       6.081535910873e-12       2.109512624430e-12      -5.827582603130e-15 
  101       2.724779433461e-10       6.355322730081e-14      -1.554854630521e-12       0.000000000000e+00       5.924048999956e-12       2.064776894222e-12      -5.703116587315e-15 
  102       2.751921751909e-10       6.508411155279e-14      -1.613732247336e-12       0.000000000000e+00       5.772002733422e-12       2.021401083806e-12      -5.577584380296e-15 
  103       2.779228434708e-10       6.662031204922e-14      -1.673247713943e-12       0.000000000000e+00       5.625311972535e-12       1.979368768846e-12      -5.451858175945e-15 
  104       2.806710774422e-10       6.816101902467e-14      -1.733374228218e-12       0.000000000000e+00       5.483845197175e-12       1.938651156459e-12      -5.326863713741e-15 
  105       2.834379801739e-10       6.970540795629e-14      -1.794084265052e-12       0.000000000000e+00       5.347422971072e-12       1.899206667498e-12      -5.203581364801e-15 
  106       2.862246260920e-10       7.125263968466e-14      -1.855349579555e-12       0.000000000000e+00       5.215816407039e-12       1.860980518839e-12      -5.083047217908e-15 
  107       2.890320585242e-10       7.280186053462e-14      -1.917141210261e-12       0.000000000000e+00       5.088745632206e-12       1.823904305670e-12      -4.966354165543e-15 
