# dimensionless total lensed [l(l+1)/2pi] C_l's
# for l=2 to 2500, i.e. number of multipoles equal to 2499
#
# -> if you prefer output in CAMB/HealPix/LensPix units/order, set 'format' to 'camb' in input file
# -> if you don't want to see such a header, set 'headers' to 'no' in input file
# -> for CMB lensing (phi), these are C_l^phi-phi for the lensing potential.
#    Remember the conversion factors:
#    C_l^dd (deflection) = l(l+1) C_l^phi-phi
#    C_l^gg (shear/convergence) = 1/4 (l(l+1))^2 C_l^phi-phi
#
# 1:l     2:TT                     3:EE                     4:TE                     5:BB                     6:phiphi                 7:TPhi                   8:Ephi               
    2       1.290806751124e-10       5.381510929516e-15       2.932607322596e-13       1.540338006613e-19       6.883827447472e-09       4.761828471898e-10      -1.801511047257e-12 
    3       1.251693517454e-10       9.524967044640e-15       4.117893085671e-13       3.081813507489e-19       4.237824797159e-09       3.366119623071e-10      -1.621556591688e-12 
    4       1.191149854917e-10       1.136188890179e-14       4.503166267395e-13       5.138852633786e-19       2.942199283682e-09       2.564732672053e-10      -1.301060647016e-12 
    5       1.138440757004e-10       1.074658123388e-14       4.420019733575e-13       7.712886805780e-19       2.190993424101e-09       2.040221842734e-10      -9.665579220041e-13 
    6       1.097503372490e-10       8.544465752947e-15       4.090836395150e-13       1.080563422224e-18       1.708681915754e-09       1.670978204173e-10      -6.584214134392e-13 
    7       1.067484670817e-10       5.894306439182e-15       3.634286139677e-13       1.441905593654e-18       1.376683640024e-09       1.398638059455e-10      -3.953298916843e-13 
    8       1.046545225265e-10       3.674479879758e-15       3.138835463442e-13       1.855530645095e-18       1.136575590753e-09       1.190558510383e-10      -1.866515419524e-13 
    9       1.032981671986e-10       2.252742659663e-15       2.663397374219e-13       2.321668043686e-18       9.562453482859e-10       1.027293619915e-10      -3.451792798184e-14 
   10       1.025340018717e-10       1.560788819218e-15       2.245561810772e-13       2.840555730520e-18       8.166337486352e-10       8.964765138766e-11       6.435359214687e-14 
   11       1.022420655354e-10       1.314994952577e-15       1.907170205786e-13       3.412434540827e-18       6.878391048103e-10       7.960125553950e-11       1.178263937551e-13 
   12       1.023250361416e-10       1.229518417359e-15       1.657226597234e-13       4.037542764896e-18       6.004366450850e-10       7.062614494967e-11       1.336933347555e-13 
   13       1.027056166867e-10       1.134972344108e-15       1.494068026743e-13       4.716111020808e-18       5.287474677650e-10       6.315235497318e-11       1.233589838037e-13 
   14       1.033230144775e-10       9.915890655867e-16       1.407131754341e-13       5.448357597572e-18       4.691522949222e-10       5.688651607525e-11       9.680156267743e-14 
   15       1.041304272003e-10       8.371225406819e-16       1.380703515400e-13       6.234484409418e-18       4.190319194125e-10       5.151962833582e-11       6.276280032771e-14 
   16       1.050917725079e-10       7.224823473763e-16       1.397985372684e-13       7.074673679431e-18       3.764526351315e-10       4.691499800917e-11       2.845752686689e-14 
   17       1.061703806520e-10       6.720721583270e-16       1.442361396331e-13       7.969085146061e-18       3.398173913476e-10       4.291218619459e-11      -9.383896550894e-16 
   18       1.073733758199e-10       6.754499885466e-16       1.502601073858e-13       8.917855941418e-18       3.084165738200e-10       3.943674154996e-11      -2.279742373791e-14 
   19       1.086546288767e-10       7.058261609568e-16       1.566107603191e-13       9.921096601723e-18       2.809483948670e-10       3.633744037182e-11      -3.575100305487e-14 
   20       1.100159708640e-10       7.463243458448e-16       1.627885731509e-13       1.097889581274e-17       2.569403314925e-10       3.358267701316e-11      -4.016860827131e-14 
   21       1.114391583199e-10       7.841107530878e-16       1.685194526345e-13       1.209131630554e-17       2.357356893830e-10       3.112822674975e-11      -3.772579705848e-14 
   22       1.129263849215e-10       8.272365004243e-16       1.737858673058e-13       1.325840319204e-17       2.170263301114e-10       2.893693420516e-11      -3.043999131262e-14 
   23       1.144620829032e-10       8.911664152126e-16       1.786874048013e-13       1.448017899591e-17       2.003438818591e-10       2.694519376548e-11      -2.089496429969e-14 
   24       1.160444183900e-10       9.833118633423e-16       1.834543368593e-13       1.575665322031e-17       1.854436139826e-10       2.513867503260e-11      -1.110952973385e-14 
   25       1.176611773877e-10       1.107427486936e-15       1.883601879137e-13       1.708781958182e-17       1.720048935625e-10       2.350129952171e-11      -2.982469295909e-15 
   26       1.193213085664e-10       1.261585292053e-15       1.935339849518e-13       1.847367460280e-17       1.599555531259e-10       2.202927914941e-11       2.717211002339e-15 
   27       1.210227074886e-10       1.440333067647e-15       1.990510054960e-13       1.991420449750e-17       1.491392209973e-10       2.070265943067e-11       5.593467637870e-15 
   28       1.227479677670e-10       1.637455341217e-15       2.049371838040e-13       2.140938724517e-17       1.392662750340e-10       1.948512209416e-11       5.448527490067e-15 
   29       1.245025330287e-10       1.852818267433e-15       2.110496077868e-13       2.295922040194e-17       1.302791023715e-10       1.837075001841e-11       2.806188486904e-15 
   30       1.262880939954e-10       2.088237386164e-15       2.171357946090e-13       2.456370554731e-17       1.221080958348e-10       1.735291395623e-11      -1.354917982075e-15 
   31       1.280968261629e-10       2.345145345306e-15       2.228868280350e-13       2.622284799772e-17       1.146136287890e-10       1.641607518573e-11      -5.886801298107e-15 
   32       1.299322220397e-10       2.622407696418e-15       2.280464000418e-13       2.793667762760e-17       1.077528244069e-10       1.555416711832e-11      -1.012002658406e-14 
   33       1.317936383465e-10       2.917619960438e-15       2.323343272741e-13       2.970523810640e-17       1.014611003649e-10       1.475727931747e-11      -1.343685507291e-14 
   34       1.336745660466e-10       3.228559218470e-15       2.354697927464e-13       3.152858544921e-17       9.563714533837e-11       1.401107536295e-11      -1.525400100012e-14 
   35       1.355797839779e-10       3.556458510783e-15       2.373641711012e-13       3.340679650357e-17       9.026536674488e-11       1.331454987288e-11      -1.557248900391e-14 
   36       1.375126775079e-10       3.903902899136e-15       2.379957193344e-13       3.533996620646e-17       8.532868041025e-11       1.266754386570e-11      -1.462619041803e-14 
   37       1.394697183007e-10       4.274016459008e-15       2.373606274439e-13       3.732820753676e-17       8.077162320535e-11       1.206551884631e-11      -1.274669826421e-14 
   38       1.414437747688e-10       4.669917644294e-15       2.354794354961e-13       3.937164850346e-17       7.652062431698e-11       1.150162082842e-11      -1.033072257607e-14 
   39       1.434373593845e-10       5.092761625821e-15       2.324154805803e-13       4.147041765042e-17       7.256224977013e-11       1.097479499833e-11      -7.710006371530e-15 
   40       1.454526955277e-10       5.543078903325e-15       2.282652807285e-13       4.362465634952e-17       6.888620834553e-11       1.048378558790e-11      -5.248639108957e-15 
   41       1.474875669881e-10       6.021291621251e-15       2.231559195068e-13       4.583452441104e-17       6.546209443946e-11       1.002465685662e-11      -3.383643029020e-15 
   42       1.495376864173e-10       6.527725945166e-15       2.172050655262e-13       4.810018751411e-17       6.225072833116e-11       9.592314810528e-12      -2.507218453423e-15 
   43       1.516058019155e-10       7.062673554509e-15       2.103813942752e-13       5.042177150142e-17       5.924662874794e-11       9.186206330793e-12      -2.558148472820e-15 
   44       1.536947167130e-10       7.626335872939e-15       2.026027936194e-13       5.279939578338e-17       5.644615887941e-11       8.806044979590e-12      -3.307568683683e-15 
   45       1.558044457528e-10       8.218798453836e-15       1.937734209598e-13       5.523318639849e-17       5.383478617440e-11       8.450101541213e-12      -4.466174317605e-15 
   46       1.579319421672e-10       8.840024098537e-15       1.837827742985e-13       5.772327643598e-17       5.138621585159e-11       8.115087807808e-12      -5.680502114397e-15 
   47       1.600731601889e-10       9.489965759048e-15       1.725219621938e-13       6.026978745971e-17       4.907079754882e-11       7.797239169197e-12      -6.609807059077e-15 
   48       1.622305863152e-10       1.016895978738e-14       1.599402264331e-13       6.287276646712e-17       4.688563506332e-11       7.496202914431e-12      -7.191565396053e-15 
   49       1.644074043225e-10       1.087743392851e-14       1.460030742551e-13       6.553223153478e-17       4.483164683239e-11       7.212068481169e-12      -7.445915004387e-15 
   50       1.666052022179e-10       1.161579690155e-14       1.306764833552e-13       6.824818866277e-17       4.290468409798e-11       6.944215041054e-12      -7.402274157146e-15 
   51       1.688238229932e-10       1.238443788946e-14       1.139268877864e-13       7.102063118672e-17       4.109515766938e-11       6.691259051623e-12      -7.099910355342e-15 
   52       1.710612153803e-10       1.318372602881e-14       9.572116386013e-14       7.384953918986e-17       3.938766468583e-11       6.451001808213e-12      -6.588509161873e-15 
   53       1.733147798602e-10       1.401396078837e-14       7.603614614609e-14       7.673487282459e-17       3.776549733052e-11       6.221104305407e-12      -5.926380801488e-15 
   54       1.755861565791e-10       1.487520929911e-14       5.489008068293e-14       7.967655161427e-17       3.622638924397e-11       6.001436282720e-12      -5.173229165585e-15 
   55       1.778774084982e-10       1.576742630553e-14       3.231923516306e-14       8.267446880430e-17       3.477016768899e-11       5.792239809699e-12      -4.396514804942e-15 
   56       1.801895493013e-10       1.669049710380e-14       8.369453592326e-15       8.572849616247e-17       3.339406127040e-11       5.593433389973e-12      -3.674113622636e-15 
   57       1.825224568447e-10       1.764423497241e-14      -1.690345822442e-14       8.883848313564e-17       3.209253139169e-11       5.404590008316e-12      -3.094786662537e-15 
   58       1.848747866052e-10       1.862837860275e-14      -4.343334719770e-14       9.200425600638e-17       3.085710371160e-11       5.224915177714e-12      -2.758649897795e-15 
   59       1.872449330177e-10       1.964266601494e-14      -7.116233486683e-14       9.522563647861e-17       2.967880906610e-11       5.053497606086e-12      -2.749306644671e-15 
   60       1.896343707620e-10       2.068708218611e-14      -1.001026086601e-13       9.850250438974e-17       2.855655097266e-11       4.890179033062e-12      -3.041620515291e-15 
   61       1.920449378346e-10       2.176166448988e-14      -1.302883246162e-13       1.018347480975e-16       2.749038688653e-11       4.734847955514e-12      -3.573316819461e-15 
   62       1.944778058973e-10       2.286643129026e-14      -1.617581152395e-13       1.052222461509e-16       2.647901113867e-11       4.587172316927e-12      -4.270955990355e-15 
   63       1.969334292483e-10       2.400138196489e-14      -1.945553483330e-13       1.086648671051e-16       2.551967484870e-11       4.446586795811e-12      -5.049442784024e-15 
   64       1.994114937922e-10       2.516649692837e-14      -2.287283858317e-13       1.121624693371e-16       2.460810583809e-11       4.312280094112e-12      -5.811535478922e-15 
   65       2.019108660106e-10       2.636173765557e-14      -2.643308426353e-13       1.157149008609e-16       2.373842854316e-11       4.183182225618e-12      -6.447355075418e-15 
   66       2.044303247236e-10       2.758699392395e-14      -3.014092215132e-13       1.193220279277e-16       2.290473407536e-11       4.058254392896e-12      -6.860690845018e-15 
   67       2.069710482010e-10       2.884191269844e-14      -3.399622398088e-13       1.229838281750e-16       2.210635061152e-11       3.937457396072e-12      -7.055394663759e-15 
   68       2.095345564120e-10       3.012603346128e-14      -3.799734502900e-13       1.267003166500e-16       2.134353307892e-11       3.820963221666e-12      -7.066196539138e-15 
   69       2.121219448265e-10       3.143883645677e-14      -4.214230333769e-13       1.304715193260e-16       2.061587547121e-11       3.708865881960e-12      -6.933732296101e-15 
   70       2.147338546289e-10       3.277974128228e-14      -4.642877133986e-13       1.342974736994e-16       1.992227554160e-11       3.601176914769e-12      -6.704779950238e-15 
   71       2.173704429306e-10       3.414810547917e-14      -5.085406748499e-13       1.381782293855e-16       1.926089949605e-11       3.497820883203e-12      -6.432496080963e-15 
   72       2.200313529831e-10       3.554322312384e-14      -5.541514786486e-13       1.421138487157e-16       1.862914668646e-11       3.398630875440e-12      -6.176652204706e-15 
   73       2.227156843917e-10       3.696432341866e-14      -6.010859783922e-13       1.461044073332e-16       1.802361430385e-11       3.303344004487e-12      -6.003871148094e-15 
   74       2.254225079782e-10       3.841060271221e-14      -6.493102737962e-13       1.501499919732e-16       1.744097008048e-11       3.211682002325e-12      -5.972032879327e-15 
   75       2.281525877094e-10       3.988133060567e-14      -6.988036113981e-13       1.542506919999e-16       1.688083733601e-11       3.123620401586e-12      -6.079596436051e-15 
   76       2.309069283405e-10       4.137576123046e-14      -7.495477561339e-13       1.584066073601e-16       1.634338804957e-11       3.039161778011e-12      -6.307183962366e-15 
   77       2.336862416061e-10       4.289310090362e-14      -8.015231715657e-13       1.626178517862e-16       1.582846727660e-11       2.958252503419e-12      -6.632466750983e-15 
   78       2.364909282096e-10       4.443250744163e-14      -8.547090234295e-13       1.668845533314e-16       1.533557747468e-11       2.880780085358e-12      -7.030059334426e-15 
   79       2.393210598119e-10       4.599308947418e-14      -9.090831831821e-13       1.712068549058e-16       1.486386282933e-11       2.806570506745e-12      -7.471413576231e-15 
   80       2.421763610215e-10       4.757390575791e-14      -9.646222315488e-13       1.755849148116e-16       1.441209357980e-11       2.735385565512e-12      -7.924712762152e-15 
   81       2.450561913832e-10       4.917396449023e-14      -1.021301462071e-12       1.800189072785e-16       1.397865034496e-11       2.666920214257e-12      -8.354765691356e-15 
   82       2.479595273676e-10       5.079222262312e-14      -1.079094884651e-12       1.845090229997e-16       1.356150844902e-11       2.600799899880e-12      -8.722900767632e-15 
   83       2.508854114252e-10       5.242760944974e-14      -1.137976126133e-12       1.890554430763e-16       1.315873213439e-11       2.536672074319e-12      -8.995303039788e-15 
   84       2.538344252074e-10       5.407910341619e-14      -1.197921297841e-12       1.936582546546e-16       1.277008683980e-11       2.474504200901e-12      -9.169864696935e-15 
   85       2.568074315422e-10       5.574566699292e-14      -1.258906617616e-12       1.983175220580e-16       1.239566982455e-11       2.414331078679e-12      -9.253663928802e-15 
   86       2.598051195052e-10       5.742622328228e-14      -1.320907574226e-12       2.030333121966e-16       1.203541751738e-11       2.356164089161e-12      -9.254961008520e-15 
   87       2.628279944474e-10       5.911965575006e-14      -1.383898946358e-12       2.078056946454e-16       1.168909861835e-11       2.299990156802e-12      -9.183237701365e-15 
   88       2.658763680242e-10       6.082480795707e-14      -1.447854821600e-12       2.126347417215e-16       1.135630720065e-11       2.245770709491e-12      -9.049236673502e-15 
   89       2.689503482231e-10       6.254048329065e-14      -1.512748615433e-12       2.175205285630e-16       1.103645581246e-11       2.193440639047e-12      -8.865000900729e-15 
   90       2.720498293921e-10       6.426544469631e-14      -1.578553090214e-12       2.224631332059e-16       1.072876857877e-11       2.142907261703e-12      -8.643913077221e-15 
   91       2.751744822682e-10       6.599841440918e-14      -1.645240374162e-12       2.274626366626e-16       1.043227430325e-11       2.094049278597e-12      -8.400735024273e-15 
   92       2.783237440054e-10       6.773807368565e-14      -1.712781980348e-12       2.325191229992e-16       1.014579957003e-11       2.046715736267e-12      -8.151647099045e-15 
   93       2.814970709148e-10       6.948308901262e-14      -1.781146458459e-12       2.376326976894e-16       9.868249296152e-12       2.000763908636e-12      -7.911196228467e-15 
   94       2.846947618234e-10       7.123219582751e-14      -1.850291904853e-12       2.428035456628e-16       9.599511638916e-12       1.956181718184e-12      -7.682529344036e-15 
   95       2.879172406883e-10       7.298412695201e-14      -1.920172355877e-12       2.480318821714e-16       9.339677065896e-12       1.912981890652e-12      -7.465757082904e-15 
   96       2.911647986381e-10       7.473758733002e-14      -1.990740041392e-12       2.533179356162e-16       9.088760118194e-12       1.871164175634e-12      -7.260911296048e-15 
   97       2.944375876080e-10       7.649125412268e-14      -2.061945371265e-12       2.586619478764e-16       8.846696458063e-12       1.830714841331e-12      -7.067942022214e-15 
   98       2.977356139740e-10       7.824377680335e-14      -2.133736921859e-12       2.640641746378e-16       8.613339916528e-12       1.791606169316e-12      -6.886714461869e-15 
   99       3.010587321875e-10       7.999377725266e-14      -2.206061422528e-12       2.695248857213e-16       8.388459541016e-12       1.753795949285e-12      -6.717005951146e-15 
  100       3.044066384096e-10       8.173984985349e-14      -2.278863742108e-12       2.750443654122e-16       8.171736642975e-12       1.717226973827e-12      -6.558502935796e-15 
  101       3.077788641459e-10       8.348056158600e-14      -2.352086875408e-12       2.806229127885e-16       7.962761845503e-12       1.681826533172e-12      -6.410797945135e-15 
  102       3.111747698807e-10       8.521445212264e-14      -2.425671929706e-12       2.862608420497e-16       7.761032130969e-12       1.647505909958e-12      -6.273386565993e-15 
  103       3.145935387115e-10       8.694003392314e-14      -2.499558111236e-12       2.919584828457e-16       7.565947888641e-12       1.614159873988e-12      -6.145664416659e-15 
  104       3.180341699837e-10       8.865579232958e-14      -2.573682711686e-12       2.977161806053e-16       7.376809962307e-12       1.581666176988e-12      -6.026924120836e-15 
  105       3.214957294266e-10       9.036022303049e-14      -2.647984466114e-12       3.035342981488e-16       7.192978030419e-12       1.549914301367e-12      -5.916469612574e-15 
  106       3.249781513790e-10       9.205194995787e-14      -2.722414167479e-12       3.094132200629e-16       7.014376235269e-12       1.518897174735e-12      -5.813982982201e-15 
  107       3.284815325635e-10       9.372962342096e-14      -2.796925454244e-12       3.153533495274e-16       6.841050037815e-12       1.488630845656e-12      -5.719201314823e-15 
