# dimensionless total [l(l+1)/2pi] C_l's
# for l=2 to 3000, i.e. number of multipoles equal to 2999
#
# -> if you prefer output in CAMB/HealPix/LensPix units/order, set 'format' to 'camb' in input file
# -> if you don't want to see such a header, set 'headers' to 'no' in input file
# -> for CMB lensing (phi), these are C_l^phi-phi for the lensing potential.
#    Remember the conversion factors:
#    C_l^dd (deflection) = l(l+1) C_l^phi-phi
#    C_l^gg (shear/convergence) = 1/4 (l(l+1))^2 C_l^phi-phi
#
# 1:l     2:TT                     3:EE                     4:TE                     5:BB                     6:phiphi                 7:TPhi                   8:Ephi               
    2       1.269762266469e-10       4.510412803622e-15       1.776230063241e-13       0.000000000000e+00       6.073528727390e-09       5.057870850926e-10      -1.464166279702e-12 
    3       1.263111068687e-10       8.544475685252e-15       3.075596574545e-13       0.000000000000e+00       3.741383940644e-09       3.540834140981e-10      -1.369199671372e-12 
    4       1.219690233760e-10       1.056709040984e-14       3.682921268692e-13       0.000000000000e+00       2.593379108369e-09       2.695172285337e-10      -1.112974676916e-12 
    5       1.172569156690e-10       1.031292410852e-14       3.812181892012e-13       0.000000000000e+00       1.927234283500e-09       2.148869347900e-10      -8.331989177107e-13 
    6       1.131353972349e-10       8.547364088549e-15       3.727568239906e-13       0.000000000000e+00       1.500342129977e-09       1.763929720369e-10      -5.730255333452e-13 
    7       1.099039043994e-10       6.204434315251e-15       3.504161976970e-13       0.000000000000e+00       1.207258721817e-09       1.479979600837e-10      -3.470904305743e-13 
    8       1.075138899315e-10       4.095901765391e-15       3.194857309034e-13       0.000000000000e+00       9.954848821975e-10       1.263036839654e-10      -1.643378783828e-13 
    9       1.058356696994e-10       2.638667691613e-15       2.848734705700e-13       0.000000000000e+00       8.366084394896e-10       1.092704484337e-10      -2.786414408481e-14 
   10       1.047516226067e-10       1.851656717464e-15       2.505085025932e-13       0.000000000000e+00       7.138528753453e-10       9.561017900991e-11       6.399581113638e-14 
   11       1.041479839560e-10       1.522414817950e-15       2.192313286568e-13       0.000000000000e+00       6.008805701734e-10       8.540932695797e-11       1.182924241324e-13 
   12       1.039417792533e-10       1.394192608020e-15       1.928489855547e-13       0.000000000000e+00       5.240663427511e-10       7.594761200038e-11       1.376035047279e-13 
   13       1.040481265520e-10       1.287539176554e-15       1.722904395032e-13       0.000000000000e+00       4.611159817700e-10       6.806801569910e-11       1.329697220931e-13 
   14       1.044164501879e-10       1.135273987113e-15       1.577085398789e-13       0.000000000000e+00       4.088291136383e-10       6.140925805480e-11       1.124016794783e-13 
   15       1.049845485002e-10       9.535546022346e-16       1.486043735857e-13       0.000000000000e+00       3.648903257800e-10       5.572107689176e-11       8.337143582807e-14 
   16       1.057090572353e-10       7.919501270717e-16       1.440436581824e-13       0.000000000000e+00       3.273406321041e-10       5.080917724429e-11       5.235844641681e-14 
   17       1.065993332479e-10       6.782183290632e-16       1.432692327126e-13       0.000000000000e+00       2.956377380600e-10       4.658199476049e-11       2.353209389046e-14 
   18       1.075866166878e-10       6.257266696898e-16       1.449968080699e-13       0.000000000000e+00       2.680508813535e-10       4.284548631291e-11       5.107205321775e-16 
   19       1.086716915081e-10       6.210602559345e-16       1.484753144869e-13       0.000000000000e+00       2.440584366879e-10       3.954798780027e-11      -1.527442268211e-14 
   20       1.098319124883e-10       6.371836029826e-16       1.529159543841e-13       0.000000000000e+00       2.230110319468e-10       3.661376641559e-11      -2.369695337702e-14 
   21       1.110691626482e-10       6.635142172709e-16       1.578952954658e-13       0.000000000000e+00       2.045770688610e-10       3.400358632457e-11      -2.552925361118e-14 
   22       1.123627974991e-10       6.954544045124e-16       1.630405357395e-13       0.000000000000e+00       1.882180903366e-10       3.164835889712e-11      -2.240000132985e-14 
   23       1.137122731937e-10       7.399824060966e-16       1.682172424707e-13       0.000000000000e+00       1.736734184299e-10       2.952164162424e-11      -1.608890684131e-14 
   24       1.151047818156e-10       8.073637693903e-16       1.733594742454e-13       0.000000000000e+00       1.606071297610e-10       2.758778597834e-11      -8.674572133317e-15 
   25       1.165500789397e-10       8.995509832232e-16       1.785184950030e-13       0.000000000000e+00       1.489499333006e-10       2.584281553199e-11      -1.383551823427e-15 
   26       1.180430134441e-10       1.014854362589e-15       1.837828230374e-13       0.000000000000e+00       1.385411657509e-10       2.426773653267e-11       4.614897213211e-15 
   27       1.195594704484e-10       1.150579209758e-15       1.892276776844e-13       0.000000000000e+00       1.290722950735e-10       2.282221973346e-11       8.158137400996e-15 
   28       1.211053316486e-10       1.305421346341e-15       1.948595934971e-13       0.000000000000e+00       1.204772236369e-10       2.149980715251e-11       9.173322147891e-15 
   29       1.226831383749e-10       1.477905386754e-15       2.006432418154e-13       0.000000000000e+00       1.126749113884e-10       2.029129162249e-11       8.068421805161e-15 
   30       1.242848228185e-10       1.666243885601e-15       2.065068011538e-13       0.000000000000e+00       1.055145857372e-10       1.917677291656e-11       5.416232925929e-15 
   31       1.259181234399e-10       1.870240235993e-15       2.123253044306e-13       0.000000000000e+00       9.897953571250e-11       1.815425933162e-11       1.715344748466e-15 
   32       1.275875379594e-10       2.090077857597e-15       2.179239697128e-13       0.000000000000e+00       9.304735887758e-11       1.721981597030e-11      -2.436895134022e-15 
   33       1.292856496120e-10       2.325819847094e-15       2.230769712759e-13       0.000000000000e+00       8.762859620720e-11       1.635876872400e-11      -6.265421902851e-15 
   34       1.309989102145e-10       2.577548280630e-15       2.275429619902e-13       0.000000000000e+00       8.260099198390e-11       1.555141748002e-11      -8.994280439547e-15 
   35       1.327314444985e-10       2.845871867647e-15       2.311991713880e-13       0.000000000000e+00       7.794628310140e-11       1.479573592273e-11      -1.049502909054e-14 
   36       1.344879939834e-10       3.131598424337e-15       2.339519984634e-13       0.000000000000e+00       7.365451863125e-11       1.409155683301e-11      -1.086591512951e-14 
   37       1.362666683416e-10       3.435607810429e-15       2.357012511013e-13       0.000000000000e+00       6.968417770610e-11       1.343400179252e-11      -1.026769067641e-14 
   38       1.380621080446e-10       3.758838219760e-15       2.363624680312e-13       0.000000000000e+00       6.597913183301e-11       1.281589552253e-11      -8.914738554100e-15 
   39       1.398781819337e-10       4.102226587010e-15       2.359441399655e-13       0.000000000000e+00       6.253407072718e-11       1.223716090979e-11      -7.032127243686e-15 
   40       1.417184419497e-10       4.466756031147e-15       2.344968632426e-13       0.000000000000e+00       5.934687361228e-11       1.169792965363e-11      -4.892145618176e-15 
   41       1.435821266140e-10       4.853476597245e-15       2.320944414893e-13       0.000000000000e+00       5.639918337207e-11       1.119571525266e-11      -2.831010462612e-15 
   42       1.454637042310e-10       5.263508964498e-15       2.288353679182e-13       0.000000000000e+00       5.365497217624e-11       1.072517748410e-11      -1.252925599374e-15 
   43       1.473559459306e-10       5.697886551127e-15       2.248130103266e-13       0.000000000000e+00       5.107214894016e-11       1.027996220640e-11      -5.226929991793e-16 
   44       1.492613718216e-10       6.157014281664e-15       2.200115559955e-13       0.000000000000e+00       4.864510322818e-11       9.859464022063e-12      -5.939588349309e-16 
   45       1.511836039189e-10       6.641047262025e-15       2.143801129793e-13       0.000000000000e+00       4.637300996431e-11       9.463775392382e-12      -1.271864986903e-15 
   46       1.531239205482e-10       7.150031320601e-15       2.078606925464e-13       0.000000000000e+00       4.424735223669e-11       9.091693892631e-12      -2.311473769993e-15 
   47       1.550810234281e-10       7.683896466607e-15       2.003877064458e-13       0.000000000000e+00       4.225131410095e-11       8.740618318603e-12      -3.414758474607e-15 
   48       1.570525367176e-10       8.242567498675e-15       1.918940389610e-13       0.000000000000e+00       4.036537295036e-11       8.407459328490e-12      -4.295176461641e-15 
   49       1.590405473152e-10       8.826347964034e-15       1.823324601301e-13       0.000000000000e+00       3.858735754143e-11       8.091917333832e-12      -4.899934883697e-15 
   50       1.610472261230e-10       9.435633193425e-15       1.716593848993e-13       0.000000000000e+00       3.691700084820e-11       7.793950105295e-12      -5.245208360496e-15 
   51       1.630730914418e-10       1.007080204992e-14       1.598286621788e-13       0.000000000000e+00       3.534995041881e-11       7.512788062437e-12      -5.354454530190e-15 
   52       1.651168644185e-10       1.073221636434e-14       1.467914075583e-13       0.000000000000e+00       3.387747748334e-11       7.246882142271e-12      -5.258852679741e-15 
   53       1.671753244943e-10       1.142022037062e-14       1.324958360231e-13       0.000000000000e+00       3.248618606163e-11       6.993851667829e-12      -4.997742375294e-15 
   54       1.692449325566e-10       1.213511121341e-14       1.168987071257e-13       0.000000000000e+00       3.116191609756e-11       6.751207683805e-12      -4.614759338317e-15 
   55       1.713275132650e-10       1.287704302869e-14       1.000034357990e-13       0.000000000000e+00       2.990327732059e-11       6.518856994346e-12      -4.144090923107e-15 
   56       1.734257561129e-10       1.364609763716e-14       8.183132011191e-14       0.000000000000e+00       2.871102720977e-11       6.297139823847e-12      -3.621513720242e-15 
   57       1.755415019631e-10       1.444230965428e-14       6.241106744094e-14       0.000000000000e+00       2.758405772666e-11       6.086089425856e-12      -3.088651062439e-15 
   58       1.776756699175e-10       1.526566475690e-14       4.177909637610e-14       0.000000000000e+00       2.651927387877e-11       5.885411283644e-12      -2.593237806278e-15 
   59       1.798281841881e-10       1.611609794982e-14       1.997983862671e-14       0.000000000000e+00       2.551147228303e-11       5.694462310772e-12      -2.189385113920e-15 
   60       1.819979009663e-10       1.699349183245e-14      -2.933959072825e-15       0.000000000000e+00       2.455321972926e-11       5.512230051660e-12      -1.937845234832e-15 
   61       1.841834846828e-10       1.789771797765e-14      -2.691509012804e-14       0.000000000000e+00       2.363692649065e-11       5.337638922145e-12      -1.890377621040e-15 
   62       1.863864320664e-10       1.882877584340e-14      -5.196777072124e-14       0.000000000000e+00       2.276188479974e-11       5.170596310984e-12      -2.038147567431e-15 
   63       1.886086001865e-10       1.978668210735e-14      -7.811156715768e-14       0.000000000000e+00       2.192860193255e-11       5.011145446711e-12      -2.352162240632e-15 
   64       1.908512748059e-10       2.077142994762e-14      -1.053682919548e-13       0.000000000000e+00       2.113669409861e-11       4.859148861362e-12      -2.797912361658e-15 
   65       1.931151273749e-10       2.178298867735e-14      -1.337621511298e-13       0.000000000000e+00       2.038483464211e-11       4.714277967771e-12      -3.335132534970e-15 
   66       1.954001720243e-10       2.282130337920e-14      -1.633198914865e-13       0.000000000000e+00       1.967070224299e-11       4.576002636873e-12      -3.917561577530e-15 
   67       1.977057225592e-10       2.388629453990e-14      -1.940709479034e-13       0.000000000000e+00       1.899092911810e-11       4.443580775006e-12      -4.492702847861e-15 
   68       2.000303494525e-10       2.497785768474e-14      -2.260475906203e-13       0.000000000000e+00       1.834104922231e-11       4.316047901208e-12      -5.001584575103e-15 
   69       2.023725869266e-10       2.609585364641e-14      -2.592789812760e-13       0.000000000000e+00       1.771666924352e-11       4.192475946850e-12      -5.392124105639e-15 
   70       2.047333141444e-10       2.724007793070e-14      -2.937716339808e-13       0.000000000000e+00       1.711736873187e-11       4.072832928292e-12      -5.662854516472e-15 
   71       2.071137747084e-10       2.841028454282e-14      -3.295252964423e-13       0.000000000000e+00       1.654348979643e-11       3.957277116774e-12      -5.827545715379e-15 
   72       2.095148447538e-10       2.960619422361e-14      -3.665386916178e-13       0.000000000000e+00       1.599496225997e-11       3.845899354795e-12      -5.902470571554e-15 
   73       2.119370085771e-10       3.082749385134e-14      -4.048095136668e-13       0.000000000000e+00       1.547128224006e-11       3.738719322163e-12      -5.906503230196e-15 
   74       2.143803342662e-10       3.207383584358e-14      -4.443344239026e-13       0.000000000000e+00       1.497149073017e-11       3.635681802054e-12      -5.861217427098e-15 
   75       2.168444493289e-10       3.334483755904e-14      -4.851090467440e-13       0.000000000000e+00       1.449415218079e-11       3.536652947063e-12      -5.790984803228e-15 
   76       2.193285163226e-10       3.464008069934e-14      -5.271279656678e-13       0.000000000000e+00       1.403733308048e-11       3.441416545259e-12      -5.723073219322e-15 
   77       2.218312084838e-10       3.595911071092e-14      -5.703847191605e-13       0.000000000000e+00       1.359858053701e-11       3.349670286241e-12      -5.687745070465e-15 
   78       2.243513034124e-10       3.730141628921e-14      -6.148696900055e-13       0.000000000000e+00       1.317553635908e-11       3.261111989314e-12      -5.711342295623e-15 
   79       2.268896396488e-10       3.866636500614e-14      -6.605633491062e-13       0.000000000000e+00       1.276795249837e-11       3.175724209707e-12      -5.793906150366e-15 
   80       2.294474654188e-10       4.005325508766e-14      -7.074417967307e-13       0.000000000000e+00       1.237599682637e-11       3.093533700702e-12      -5.927736379630e-15 
   81       2.320258393367e-10       4.146133332466e-14      -7.554787181196e-13       0.000000000000e+00       1.199964056164e-11       3.014523995357e-12      -6.104013431140e-15 
   82       2.346256180703e-10       4.288979408733e-14      -8.046453384129e-13       0.000000000000e+00       1.163864922683e-11       2.938633424490e-12      -6.312760191511e-15 
   83       2.372474440071e-10       4.433777833948e-14      -8.549103775757e-13       0.000000000000e+00       1.129257360562e-11       2.865753134678e-12      -6.542803722355e-15 
   84       2.398917329190e-10       4.580437265288e-14      -9.062400053250e-13       0.000000000000e+00       1.096074069965e-11       2.795725106252e-12      -6.781736996385e-15 
   85       2.425586616281e-10       4.728860822165e-14      -9.585977960555e-13       0.000000000000e+00       1.064224468552e-11       2.728340171290e-12      -7.015880633519e-15 
   86       2.452481556720e-10       4.878945987654e-14      -1.011944683767e-12       0.000000000000e+00       1.033593787175e-11       2.663336031609e-12      -7.230244636986e-15 
   87       2.479598769691e-10       5.030584509929e-14      -1.066238916989e-12       0.000000000000e+00       1.004042165571e-11       2.600395276763e-12      -7.408490129428e-15 
   88       2.506934785252e-10       5.183669580650e-14      -1.121441045507e-12       0.000000000000e+00       9.754387065649e-12       2.539223090668e-12      -7.536408791021e-15 
   89       2.534494417735e-10       5.338118890332e-14      -1.177529885551e-12       0.000000000000e+00       9.477718033633e-12       2.479798824343e-12      -7.613077283797e-15 
   90       2.562283499269e-10       5.493855064490e-14      -1.234489015055e-12       0.000000000000e+00       9.210547239350e-12       2.422160852909e-12      -7.641409404357e-15 
   91       2.590306246276e-10       5.650798724814e-14      -1.292301998735e-12       0.000000000000e+00       8.952918460706e-12       2.366329687088e-12      -7.624811216010e-15 
   92       2.618565177040e-10       5.808868502104e-14      -1.350952420120e-12       0.000000000000e+00       8.704782887044e-12       2.312307212160e-12      -7.567196682257e-15 
   93       2.647061029280e-10       5.967981049192e-14      -1.410423913571e-12       0.000000000000e+00       8.465995432362e-12       2.260075926933e-12      -7.473003300268e-15 
   94       2.675792677714e-10       6.128051053879e-14      -1.470700196303e-12       0.000000000000e+00       8.236311048531e-12       2.209598182703e-12      -7.347207734364e-15 
   95       2.704757051631e-10       6.288991251860e-14      -1.531765100405e-12       0.000000000000e+00       8.015381038514e-12       2.160815422221e-12      -7.195341449494e-15 
   96       2.733949052464e-10       6.450712439656e-14      -1.593602604870e-12       0.000000000000e+00       7.802749369582e-12       2.113647418656e-12      -7.023506344717e-15 
   97       2.763361471354e-10       6.613123487545e-14      -1.656196867608e-12       0.000000000000e+00       7.597848986536e-12       2.067991514556e-12      -6.838390386681e-15 
   98       2.792984906721e-10       6.776131352488e-14      -1.719532257475e-12       0.000000000000e+00       7.399998124922e-12       2.023721860819e-12      -6.647283243100e-15 
   99       2.822807681836e-10       6.939641091062e-14      -1.783593386292e-12       0.000000000000e+00       7.208396624250e-12       1.980688655651e-12      -6.458091916240e-15 
  100       2.852819377676e-10       7.103554425019e-14      -1.848361383095e-12       0.000000000000e+00       7.022310090093e-12       1.938754350092e-12      -6.277862797590e-15 
  101       2.883022174812e-10       7.267765180512e-14      -1.913802051593e-12       0.000000000000e+00       6.841659809769e-12       1.897909701322e-12      -6.108077592334e-15 
  102       2.913420956713e-10       7.432163230149e-14      -1.979876103240e-12       0.000000000000e+00       6.666509120945e-12       1.858172660212e-12      -5.948723501697e-15 
  103       2.944019797453e-10       7.596635879056e-14      -2.046542754313e-12       0.000000000000e+00       6.496881510202e-12       1.819552539639e-12      -5.799725833861e-15 
  104       2.974821922230e-10       7.761067860615e-14      -2.113759713278e-12       0.000000000000e+00       6.332759158122e-12       1.782049692657e-12      -5.660945891951e-15 
  105       3.005829667889e-10       7.925341332193e-14      -2.181483168173e-12       0.000000000000e+00       6.174081484372e-12       1.745655190666e-12      -5.532178862023e-15 
  106       3.037044443449e-10       8.089335870880e-14      -2.249667773981e-12       0.000000000000e+00       6.020743692795e-12       1.710350501584e-12      -5.413151701060e-15 
  107       3.068466690623e-10       8.252928469219e-14      -2.318266640004e-12       0.000000000000e+00       5.872595316489e-12       1.676107168018e-12      -5.303521024952e-15 
