# dimensionless total [l(l+1)/2pi] C_l's
# for l=2 to 3000, i.e. number of multipoles equal to 2999
#
# -> if you prefer output in CAMB/HealPix/LensPix units/order, set 'format' to 'camb' in input file
# -> if you don't want to see such a header, set 'headers' to 'no' in input file
# -> for CMB lensing (phi), these are C_l^phi-phi for the lensing potential.
#    Remember the conversion factors:
#    C_l^dd (deflection) = l(l+1) C_l^phi-phi
#    C_l^gg (shear/convergence) = 1/4 (l(l+1))^2 C_l^phi-phi
#
# 1:l     2:TT                     3:EE                     4:TE                     5:BB                     6:phiphi                 7:TPhi                   8:Ephi               
    2       1.300596388499e-10       2.329773885434e-15       6.980547027090e-14       0.000000000000e+00       5.693288233214e-09       5.499941075579e-10      -9.175930431858e-13 
    3       1.301660290629e-10       3.679288507991e-15       1.704738201688e-13       0.000000000000e+00       3.479734795803e-09       3.803536497196e-10      -7.623271640239e-13 
    4       1.279486755308e-10       3.635627718882e-15       2.270298299151e-13       0.000000000000e+00       2.407151196715e-09       2.875741214677e-10      -4.984595578060e-13 
    5       1.248783349631e-10       2.754822943814e-15       2.403385576377e-13       0.000000000000e+00       1.787687628240e-09       2.287867532633e-10      -2.547919510576e-13 
    6       1.217378879642e-10       1.853375459764e-15       2.370223314422e-13       0.000000000000e+00       1.390866484526e-09       1.876500801058e-10      -7.155948947564e-14 
    7       1.191486340229e-10       1.233073070288e-15       2.244297753895e-13       0.000000000000e+00       1.118303981966e-09       1.574213119140e-10       4.966254683804e-14 
    8       1.172688690269e-10       8.929628611134e-16       2.052059360799e-13       0.000000000000e+00       9.213846447308e-10       1.344494780752e-10       1.152095675718e-13 
    9       1.160106227128e-10       7.159669763730e-16       1.826202409301e-13       0.000000000000e+00       7.735282255667e-10       1.165176680188e-10       1.364047472539e-13 
   10       1.152844208859e-10       5.931421995666e-16       1.601771829809e-13       0.000000000000e+00       6.592070669749e-10       1.022002088764e-10       1.272700579943e-13 
   11       1.149492733637e-10       4.766309739434e-16       1.406629782037e-13       0.000000000000e+00       5.550884390244e-10       9.188441026583e-11       1.036105005420e-13 
   12       1.149546681557e-10       3.683667558812e-16       1.257541994845e-13       0.000000000000e+00       4.838436805059e-10       8.195518307486e-11       7.274817795799e-14 
   13       1.151864458264e-10       2.848543846846e-16       1.160665210859e-13       0.000000000000e+00       4.254952008034e-10       7.363085852778e-11       4.517918216395e-14 
   14       1.156468590493e-10       2.342269640052e-16       1.114181445398e-13       0.000000000000e+00       3.770591496652e-10       6.655422787301e-11       2.517589394688e-14 
   15       1.162459064803e-10       2.128005753102e-16       1.109773928918e-13       0.000000000000e+00       3.362967110518e-10       6.042144832212e-11       1.369867547079e-14 
   16       1.170035515974e-10       2.159122450971e-16       1.139403469148e-13       0.000000000000e+00       3.018627451946e-10       5.520384639592e-11       9.722723696595e-15 
   17       1.178630924702e-10       2.361044682157e-16       1.189731598015e-13       0.000000000000e+00       2.722311430209e-10       5.060657832816e-11       1.037115859292e-14 
   18       1.188382250409e-10       2.702084342415e-16       1.253630676096e-13       0.000000000000e+00       2.468067735864e-10       4.656359854090e-11       1.323864249122e-14 
   19       1.199000342961e-10       3.154806062382e-16       1.324476348922e-13       0.000000000000e+00       2.246256877491e-10       4.298432455300e-11       1.571421331569e-14 
   20       1.210442422114e-10       3.700824355249e-16       1.399362132559e-13       0.000000000000e+00       2.052429816097e-10       3.981824537115e-11       1.666069223192e-14 
   21       1.222374453094e-10       4.323491931586e-16       1.476308749020e-13       0.000000000000e+00       1.880436073679e-10       3.697354881566e-11       1.553755836993e-14 
   22       1.235049845943e-10       5.029101076733e-16       1.555199819171e-13       0.000000000000e+00       1.729332660881e-10       3.444172446846e-11       1.267914236261e-14 
   23       1.248525417105e-10       5.833073126694e-16       1.636450115810e-13       0.000000000000e+00       1.596586698353e-10       3.218811833072e-11       8.955613625591e-15 
   24       1.262482863552e-10       6.751288898882e-16       1.720188098435e-13       0.000000000000e+00       1.476804268319e-10       3.013110012598e-11       5.423490445538e-15 
   25       1.276983255090e-10       7.791047951069e-16       1.805505376918e-13       0.000000000000e+00       1.369132642106e-10       2.826019576258e-11       2.563676605795e-15 
   26       1.291957285138e-10       8.955765209890e-16       1.890773339547e-13       0.000000000000e+00       1.272657666177e-10       2.656205279553e-11       7.109053362485e-16 
   27       1.307129628239e-10       1.024761995799e-15       1.974032720358e-13       0.000000000000e+00       1.185149660192e-10       2.500120466772e-11       1.146666080957e-16 
   28       1.322599396749e-10       1.166999626211e-15       2.053968464170e-13       0.000000000000e+00       1.106033720785e-10       2.357156187157e-11       4.870431840965e-16 
   29       1.338449621387e-10       1.322583476971e-15       2.129294618124e-13       0.000000000000e+00       1.034382623233e-10       2.226165969394e-11       1.243033817447e-15 
   30       1.354641690044e-10       1.491789348075e-15       2.198781904055e-13       0.000000000000e+00       9.686096207943e-11       2.104861377461e-11       1.752504046630e-15 
   31       1.371249941518e-10       1.675223714404e-15       2.262288317535e-13       0.000000000000e+00       9.085107857117e-11       1.993089552466e-11       1.893844905910e-15 
   32       1.388285147661e-10       1.873606596303e-15       2.320140809151e-13       0.000000000000e+00       8.538745665272e-11       1.890576368616e-11       1.710112849460e-15 
   33       1.405611799798e-10       2.087683591432e-15       2.372893203143e-13       0.000000000000e+00       8.038746115210e-11       1.795932382702e-11       1.269958595308e-15 
   34       1.423031222666e-10       2.318206592687e-15       2.421086439570e-13       0.000000000000e+00       7.574011975775e-11       1.707248561984e-11       6.594272922317e-16 
   35       1.440614360830e-10       2.565863867160e-15       2.464372740347e-13       0.000000000000e+00       7.143754067073e-11       1.624465522699e-11      -5.225796693788e-17 
   36       1.458468470978e-10       2.831324951184e-15       2.502081980560e-13       0.000000000000e+00       6.748350726797e-11       1.547721604677e-11      -7.879238521332e-16 
   37       1.476639690406e-10       3.115257986763e-15       2.533441895898e-13       0.000000000000e+00       6.385555563108e-11       1.476666121808e-11      -1.451833225906e-15 
   38       1.495105283767e-10       3.418328869314e-15       2.557569821918e-13       0.000000000000e+00       6.050235076659e-11       1.410409628571e-11      -1.928416330498e-15 
   39       1.513805168524e-10       3.741166852029e-15       2.573623187539e-13       0.000000000000e+00       5.736136906066e-11       1.347852096790e-11      -2.116630412228e-15 
   40       1.532768112145e-10       4.084249302100e-15       2.581332646898e-13       0.000000000000e+00       5.442552396600e-11       1.288921952932e-11      -2.050193015345e-15 
   41       1.552015702492e-10       4.447976235050e-15       2.580637028691e-13       0.000000000000e+00       5.169490526147e-11       1.233677015628e-11      -1.816240540073e-15 
   42       1.571522214823e-10       4.832697114266e-15       2.571544204974e-13       0.000000000000e+00       4.915741564554e-11       1.181943228521e-11      -1.524688807631e-15 
   43       1.591209879978e-10       5.238707418475e-15       2.554135042297e-13       0.000000000000e+00       4.678770897454e-11       1.133293996813e-11      -1.309704896330e-15 
   44       1.610984715324e-10       5.666305370870e-15       2.528481827532e-13       0.000000000000e+00       4.455591495700e-11       1.087210425289e-11      -1.296525914605e-15 
   45       1.630868231301e-10       6.115990868465e-15       2.494364543010e-13       0.000000000000e+00       4.245949547146e-11       1.043669141653e-11      -1.486370534123e-15 
   46       1.650897930270e-10       6.588321490113e-15       2.451474635844e-13       0.000000000000e+00       4.049931808456e-11       1.002698981445e-11      -1.838872982274e-15 
   47       1.671088034899e-10       7.083857835443e-15       2.399491795146e-13       0.000000000000e+00       3.867026097365e-11       9.642062842327e-12      -2.303062486503e-15 
   48       1.691427214703e-10       7.603163738501e-15       2.338082719811e-13       0.000000000000e+00       3.696074428352e-11       9.279651938899e-12      -2.816734924761e-15 
   49       1.711876312586e-10       8.146806481396e-15       2.266899886294e-13       0.000000000000e+00       3.535226148319e-11       8.936079588672e-12      -3.305824475958e-15 
   50       1.732391777078e-10       8.715316474509e-15       2.185609674571e-13       0.000000000000e+00       3.382495518453e-11       8.607407888932e-12      -3.701520967499e-15 
   51       1.753008731824e-10       9.309052899147e-15       2.093988605093e-13       0.000000000000e+00       3.237721611224e-11       8.293510025887e-12      -3.998557240046e-15 
   52       1.773776524551e-10       9.928301964403e-15       1.991851094293e-13       0.000000000000e+00       3.101059397412e-11       7.994936288975e-12      -4.211657088326e-15 
   53       1.794733953557e-10       1.057331259947e-14       1.879022525331e-13       0.000000000000e+00       2.972403813610e-11       7.711718085575e-12      -4.359374207314e-15 
   54       1.815908203930e-10       1.124429475982e-14       1.755339397427e-13       0.000000000000e+00       2.851371342419e-11       7.443330029116e-12      -4.464298934318e-15 
   55       1.837313783765e-10       1.194141773342e-14       1.620649475207e-13       0.000000000000e+00       2.737281592658e-11       7.188652027188e-12      -4.553264991055e-15 
   56       1.858951460384e-10       1.266480844687e-14       1.474811938047e-13       0.000000000000e+00       2.629138879566e-11       6.945931369653e-12      -4.657556225735e-15 
   57       1.880814927476e-10       1.341458661129e-14       1.317686467121e-13       0.000000000000e+00       2.525917286960e-11       6.713328155501e-12      -4.805392158274e-15 
   58       1.902915104158e-10       1.419098388840e-14       1.149097102693e-13       0.000000000000e+00       2.427537881216e-11       6.490791141426e-12      -4.996803778261e-15 
   59       1.925259802357e-10       1.499425037617e-14       9.688599655146e-14       0.000000000000e+00       2.334093881522e-11       6.278565894270e-12      -5.223084891457e-15 
   60       1.947845741209e-10       1.582461993090e-14       7.767933106922e-14       0.000000000000e+00       2.245560520003e-11       6.076634591569e-12      -5.473911972196e-15 
   61       1.970657763895e-10       1.668230981062e-14       5.727172754947e-14       0.000000000000e+00       2.161787637607e-11       5.884699283483e-12      -5.737270644235e-15 
   62       1.993668054474e-10       1.756752031848e-14       3.564536271596e-14       0.000000000000e+00       2.082492279988e-11       5.702165154724e-12      -5.999382161612e-15 
   63       2.016835354714e-10       1.848043444607e-14       1.278255107004e-14       0.000000000000e+00       2.007251293387e-11       5.528123786494e-12      -6.244629889490e-15 
   64       2.040104180927e-10       1.942121751690e-14      -1.133428032876e-14       0.000000000000e+00       1.935493920519e-11       5.361336418406e-12      -6.455485785011e-15 
   65       2.063422701378e-10       2.038998117829e-14      -3.671994108443e-14       0.000000000000e+00       1.866654370071e-11       5.200575815847e-12      -6.616361320361e-15 
   66       2.086802528212e-10       2.138666731501e-14      -6.337781598405e-14       0.000000000000e+00       1.800683711574e-11       5.045773620271e-12      -6.726273306789e-15 
   67       2.110270225856e-10       2.241113884044e-14      -9.130673178852e-14       0.000000000000e+00       1.737633475791e-11       4.897086784969e-12      -6.788736976358e-15 
   68       2.133849511494e-10       2.346321185001e-14      -1.205034226622e-13       0.000000000000e+00       1.677502372556e-11       4.754553828967e-12      -6.808113810599e-15 
   69       2.157560993872e-10       2.454265426739e-14      -1.509624805394e-13       0.000000000000e+00       1.620233361444e-11       4.618088129888e-12      -6.789647795968e-15 
   70       2.181421912108e-10       2.564918449060e-14      -1.826763054903e-13       0.000000000000e+00       1.565710722443e-11       4.487471216796e-12      -6.739501679308e-15 
   71       2.205445874499e-10       2.678247003813e-14      -2.156350560874e-13       0.000000000000e+00       1.513757126622e-11       4.362346063054e-12      -6.664793223302e-15 
   72       2.229642597325e-10       2.794212619513e-14      -2.498265997717e-13       0.000000000000e+00       1.464130706801e-11       4.242210379170e-12      -6.573631461939e-15 
   73       2.254017643661e-10       2.912771465947e-14      -2.852364632191e-13       0.000000000000e+00       1.416522128223e-11       4.126409905652e-12      -6.475152955966e-15 
   74       2.278576182643e-10       3.033879153634e-14      -3.218505655340e-13       0.000000000000e+00       1.370634780933e-11       4.014316736422e-12      -6.377785222288e-15 
   75       2.303335658960e-10       3.157506469943e-14      -3.596641187910e-13       0.000000000000e+00       1.326449187858e-11       3.905917709951e-12      -6.283581197488e-15 
   76       2.328315030639e-10       3.283626354440e-14      -3.986743099562e-13       0.000000000000e+00       1.284002970539e-11       3.801324422294e-12      -6.192885923309e-15 
   77       2.353530787300e-10       3.412209196782e-14      -4.388776760097e-13       0.000000000000e+00       1.243310998524e-11       3.700595291659e-12      -6.106013384933e-15 
   78       2.378996775888e-10       3.543222808022e-14      -4.802701144813e-13       0.000000000000e+00       1.204364257263e-11       3.603732851925e-12      -6.023244435069e-15 
   79       2.404724026411e-10       3.676632391928e-14      -5.228468939858e-13       0.000000000000e+00       1.167128716000e-11       3.510681046145e-12      -5.944824718038e-15 
   80       2.430720577673e-10       3.812400516295e-14      -5.666026647588e-13       0.000000000000e+00       1.131544195675e-11       3.421322520068e-12      -5.870962593852e-15 
   81       2.456991303016e-10       3.950487084255e-14      -6.115314691918e-13       0.000000000000e+00       1.097523236815e-11       3.335475915646e-12      -5.801827062301e-15 
   82       2.483537736052e-10       4.090849305594e-14      -6.576267523680e-13       0.000000000000e+00       1.064949967434e-11       3.252893164547e-12      -5.737545687041e-15 
   83       2.510357896397e-10       4.233441668061e-14      -7.048813725977e-13       0.000000000000e+00       1.033678970926e-11       3.173256781669e-12      -5.678202519673e-15 
   84       2.537446115414e-10       4.378215908686e-14      -7.532876119537e-13       0.000000000000e+00       1.003534153965e-11       3.096177158654e-12      -5.623836023830e-15 
   85       2.564795582888e-10       4.525120136001e-14      -8.028361446915e-13       0.000000000000e+00       9.743512404510e-12       3.021290535706e-12      -5.574416760948e-15 
   86       2.592406847776e-10       4.674096094258e-14      -8.535127252756e-13       0.000000000000e+00       9.461157295444e-12       2.948577281262e-12      -5.529780789851e-15 
   87       2.620280397521e-10       4.825081396038e-14      -9.053009742777e-13       0.000000000000e+00       9.188455785973e-12       2.878091058905e-12      -5.489681489526e-15 
   88       2.648413933320e-10       4.978010289455e-14      -9.581833657354e-13       0.000000000000e+00       8.925491783379e-12       2.809861750455e-12      -5.453806453514e-15 
   89       2.676802240529e-10       5.132813615527e-14      -1.012141220580e-12       0.000000000000e+00       8.672249369262e-12       2.743894402206e-12      -5.421775081768e-15 
   90       2.705437059062e-10       5.289418765552e-14      -1.067154700066e-12       0.000000000000e+00       8.428608640094e-12       2.680168171158e-12      -5.393136172499e-15 
   91       2.734306953797e-10       5.447749638483e-14      -1.123202799196e-12       0.000000000000e+00       8.194341547779e-12       2.618635271252e-12      -5.367365514042e-15 
   92       2.763397184977e-10       5.607726598302e-14      -1.180263340155e-12       0.000000000000e+00       7.969107740208e-12       2.559219919606e-12      -5.343863476700e-15 
   93       2.792689578614e-10       5.769266431397e-14      -1.238312965733e-12       0.000000000000e+00       7.752450401815e-12       2.501817282747e-12      -5.321952604607e-15 
   94       2.822162396891e-10       5.932282303930e-14      -1.297327132756e-12       0.000000000000e+00       7.543792094141e-12       2.446292422845e-12      -5.300875207580e-15 
   95       2.851790208567e-10       6.096683719218e-14      -1.357280105511e-12       0.000000000000e+00       7.342430596382e-12       2.392479243953e-12      -5.279790952972e-15 
   96       2.881543759375e-10       6.262376475107e-14      -1.418144949182e-12       0.000000000000e+00       7.147534745952e-12       2.340179438233e-12      -5.257774457530e-15 
   97       2.911397836242e-10       6.429265538381e-14      -1.479894263384e-12       0.000000000000e+00       6.958341488915e-12       2.289211522077e-12      -5.234011484296e-15 
   98       2.941356437695e-10       6.597264234421e-14      -1.542502518024e-12       0.000000000000e+00       6.774788539426e-12       2.239568314218e-12      -5.208425109196e-15 
   99       2.971431015724e-10       6.766286312064e-14      -1.605944044229e-12       0.000000000000e+00       6.596965814862e-12       2.191280355810e-12      -5.181135955249e-15 
  100       3.001632777889e-10       6.936243139206e-14      -1.670192327051e-12       0.000000000000e+00       6.424920776809e-12       2.144367433043e-12      -5.152271751030e-15 
  101       3.031972658623e-10       7.107043697004e-14      -1.735220008243e-12       0.000000000000e+00       6.258656811617e-12       2.098838155689e-12      -5.121967429633e-15 
  102       3.062461290552e-10       7.278594574074e-14      -1.800998889028e-12       0.000000000000e+00       6.098131610948e-12       2.054689535660e-12      -5.090365227643e-15 
  103       3.093108975808e-10       7.450799960687e-14      -1.867499932868e-12       0.000000000000e+00       5.943255552329e-12       2.011906565549e-12      -5.057614784100e-15 
  104       3.123925657340e-10       7.623561642967e-14      -1.934693268241e-12       0.000000000000e+00       5.793890079706e-12       1.970461797182e-12      -5.023873239465e-15 
  105       3.154920890229e-10       7.796778997091e-14      -2.002548191405e-12       0.000000000000e+00       5.649846083990e-12       1.930314920171e-12      -4.989305334587e-15 
  106       3.186103813003e-10       7.970348983486e-14      -2.071033169176e-12       0.000000000000e+00       5.510882283613e-12       1.891412340456e-12      -4.954083509675e-15 
  107       3.217483118947e-10       8.144166141029e-14      -2.140115841694e-12       0.000000000000e+00       5.376703605076e-12       1.853686758862e-12      -4.918388003254e-15 
