# dimensionless total lensed [l(l+1)/2pi] C_l's
# for l=2 to 2500, i.e. number of multipoles equal to 2499
#
# -> if you prefer output in CAMB/HealPix/LensPix units/order, set 'format' to 'camb' in input file
# -> if you don't want to see such a header, set 'headers' to 'no' in input file
# -> for CMB lensing (phi), these are C_l^phi-phi for the lensing potential.
#    Remember the conversion factors:
#    C_l^dd (deflection) = l(l+1) C_l^phi-phi
#    C_l^gg (shear/convergence) = 1/4 (l(l+1))^2 C_l^phi-phi
#
# 1:l     2:TT                     3:EE                     4:TE                     5:BB                     6:phiphi                 7:TPhi                   8:Ephi               
    2       1.300599120503e-10       2.329889157398e-15       6.980546838967e-14       1.152718080500e-19       5.693288233214e-09       5.499941075579e-10      -9.175930431858e-13 
    3       1.301665740538e-10       3.679519025717e-15       1.704738117912e-13       2.305161752830e-19       3.479734795803e-09       3.803536497196e-10      -7.623271640239e-13 
    4       1.279495807577e-10       3.636011862834e-15       2.270298058663e-13       3.841363187969e-19       2.407151196715e-09       2.875741214677e-10      -4.984595578060e-13 
    5       1.248796871066e-10       2.755399075689e-15       2.403385029170e-13       5.761056734871e-19       1.787687628240e-09       2.287867532633e-10      -2.547919510576e-13 
    6       1.217397715940e-10       1.854181930614e-15       2.370222239936e-13       8.063991763860e-19       1.390866484526e-09       1.876500801058e-10      -7.155948947564e-14 
    7       1.191511313105e-10       1.234148235686e-15       2.244295850065e-13       1.074998020452e-18       1.118303981966e-09       1.574213119140e-10       4.966254683804e-14 
    8       1.172720595227e-10       8.943451034205e-16       2.052056234612e-13       1.381894726457e-18       9.213846447308e-10       1.344494780752e-10       1.152095675718e-13 
    9       1.160145831932e-10       7.176947335297e-16       1.826197568918e-13       1.727098239647e-18       7.735282255667e-10       1.165176680188e-10       1.364047472539e-13 
   10       1.152892252714e-10       5.952539992694e-16       1.601764678293e-13       2.110638748670e-18       6.592070669749e-10       1.022002088764e-10       1.272700579943e-13 
   11       1.149549927072e-10       4.791654715046e-16       1.406619612620e-13       2.532571930051e-18       5.550884390244e-10       9.188441026583e-11       1.036105005420e-13 
   12       1.149613706980e-10       3.713627736213e-16       1.257527987643e-13       2.992982341981e-18       4.838436805059e-10       8.195518307486e-11       7.274817795799e-14 
   13       1.151941971133e-10       2.883509503618e-16       1.160646430854e-13       3.491985725760e-18       4.254952008034e-10       7.363085852778e-11       4.517918216395e-14 
   14       1.156557221025e-10       2.382633455913e-16       1.114156841500e-13       4.029730020342e-18       3.770591496652e-10       6.655422787301e-11       2.517589394688e-14 
   15       1.162559420146e-10       2.174163103804e-16       1.109742333923e-13       4.606395398394e-18       3.362967110518e-10       6.042144832212e-11       1.369867547079e-14 
   16       1.170148182602e-10       2.211471562867e-16       1.139363599953e-13       5.222190135891e-18       3.018627451946e-10       5.520384639592e-11       9.722723696595e-15 
   17       1.178756471297e-10       2.419986783824e-16       1.189682056882e-13       5.877352297652e-18       2.722311430209e-10       5.060657832816e-11       1.037115859292e-14 
   18       1.188521230370e-10       2.768023535800e-16       1.253569950801e-13       6.572137301358e-18       2.468067735864e-10       4.656359854090e-11       1.323864249122e-14 
   19       1.199153297465e-10       3.228149205775e-16       1.324402814101e-13       7.306820396150e-18       2.246256877491e-10       4.298432455300e-11       1.571421331569e-14 
   20       1.210609882554e-10       3.781980672652e-16       1.399274049529e-13       8.081682569940e-18       2.052429816097e-10       3.981824537115e-11       1.666069223192e-14 
   21       1.222556943817e-10       4.412872604519e-16       1.476204266328e-13       8.897010125775e-18       1.880436073679e-10       3.697354881566e-11       1.553755836993e-14 
   22       1.235247885161e-10       5.127118495181e-16       1.555076969551e-13       9.753069200447e-18       1.729332660881e-10       3.444172446846e-11       1.267914236261e-14 
   23       1.248739519200e-10       5.940140222750e-16       1.636306815879e-13       1.065011664131e-17       1.596586698353e-10       3.218811833072e-11       8.955613625591e-15 
   24       1.262713541146e-10       6.867818442147e-16       1.720022148340e-13       1.158839492151e-17       1.476804268319e-10       3.013110012598e-11       5.423490445538e-15 
   25       1.277231017813e-10       7.917451649088e-16       1.805314454807e-13       1.256809816214e-17       1.369132642106e-10       2.826019576258e-11       2.563676605795e-15 
   26       1.292222640260e-10       9.092452778643e-16       1.890554999047e-13       1.358938416428e-17       1.272657666177e-10       2.656205279553e-11       7.109053362485e-16 
   27       1.307413081275e-10       1.039499824560e-15       1.973784388746e-13       1.465237343342e-17       1.185149660192e-10       2.500120466772e-11       1.146666080957e-16 
   28       1.322901449023e-10       1.182846870258e-15       2.053687438274e-13       1.575713156227e-17       1.106033720785e-10       2.357156187157e-11       4.870431840965e-16 
   29       1.338770769216e-10       1.339580052673e-15       2.128978061523e-13       1.690367164430e-17       1.034382623233e-10       2.226165969394e-11       1.243033817447e-15 
   30       1.354982423849e-10       1.509974677501e-15       2.198426845733e-13       1.809195716991e-17       9.686096207943e-11       2.104861377461e-11       1.752504046630e-15 
   31       1.371610742468e-10       1.694636776281e-15       2.261891653772e-13       1.932191401982e-17       9.085107857117e-11       1.993089552466e-11       1.893844905910e-15 
   32       1.388666485525e-10       1.894285898675e-15       2.319699303526e-13       2.059341568714e-17       8.538745665272e-11       1.890576368616e-11       1.710112849460e-15 
   33       1.406014131157e-10       2.109667110870e-15       2.372403485805e-13       2.190627460791e-17       8.038746115210e-11       1.795932382702e-11       1.269958595308e-15 
   34       1.423454989179e-10       2.341531778008e-15       2.420545011617e-13       2.326026428579e-17       7.574011975775e-11       1.707248561984e-11       6.594272922317e-16 
   35       1.441059988185e-10       2.590567873214e-15       2.463775995715e-13       2.465520707604e-17       7.143754067073e-11       1.624465522699e-11      -5.225796693788e-17 
   36       1.458936367086e-10       2.857444727343e-15       2.501426217295e-13       2.609091309708e-17       6.748350726797e-11       1.547721604677e-11      -7.879238521332e-16 
   37       1.477130243166e-10       3.142830310213e-15       2.532723323565e-13       2.756715487507e-17       6.385555563108e-11       1.476666121808e-11      -1.451833225906e-15 
   38       1.495618858650e-10       3.447390382606e-15       2.556784569610e-13       2.908366557216e-17       6.050235076659e-11       1.410409628571e-11      -1.928416330498e-15 
   39       1.514342107651e-10       3.771754146491e-15       2.572767320446e-13       3.064018000747e-17       5.736136906066e-11       1.347852096790e-11      -2.116630412228e-15 
   40       1.533328738912e-10       4.116399147339e-15       2.580402210691e-13       3.223657881947e-17       5.442552396600e-11       1.288921952932e-11      -2.050193015345e-15 
   41       1.552600322233e-10       4.481725719253e-15       2.579628076559e-13       3.387279052038e-17       5.169490526147e-11       1.233677015628e-11      -1.816240540073e-15 
   42       1.572131113892e-10       4.868083754471e-15       2.570452818673e-13       3.554875444794e-17       4.915741564554e-11       1.181943228521e-11      -1.524688807631e-15 
   43       1.591843324783e-10       5.275769278309e-15       2.552957354407e-13       3.726442228540e-17       4.678770897454e-11       1.133293996813e-11      -1.309704896330e-15 
   44       1.611642953495e-10       5.705081106250e-15       2.527214049209e-13       3.901978649137e-17       4.455591495700e-11       1.087210425289e-11      -1.296525914605e-15 
   45       1.631551500166e-10       6.156519513352e-15       2.493003007371e-13       4.081497233462e-17       4.245949547146e-11       1.043669141653e-11      -1.486370534123e-15 
   46       1.651606460156e-10       6.630642435475e-15       2.450015832532e-13       4.265017654303e-17       4.049931808456e-11       1.002698981445e-11      -1.838872982274e-15 
   47       1.671822050515e-10       7.128010883366e-15       2.397932402457e-13       4.452564590952e-17       3.867026097365e-11       9.642062842327e-12      -2.303062486503e-15 
   48       1.692186936593e-10       7.649189158950e-15       2.336419638277e-13       4.644168044295e-17       3.696074428352e-11       9.279651938899e-12      -2.816734924761e-15 
   49       1.712661958658e-10       8.194745071619e-15       2.265130273736e-13       4.839863651907e-17       3.535226148319e-11       8.936079588672e-12      -3.305824475958e-15 
   50       1.733203564433e-10       8.765209414636e-15       2.183730972563e-13       5.039689392390e-17       3.382495518453e-11       8.607407888932e-12      -3.701520967499e-15 
   51       1.753846879368e-10       9.360940925043e-15       2.091998533489e-13       5.243673912755e-17       3.237721611224e-11       8.293510025887e-12      -3.998557240046e-15 
   52       1.774641255171e-10       9.982225042515e-15       1.989747671561e-13       5.451845577298e-17       3.101059397412e-11       7.994936288975e-12      -4.211657088326e-15 
   53       1.795625496174e-10       1.062930978502e-14       1.876804099142e-13       5.664235943162e-17       2.972403813610e-11       7.711718085575e-12      -4.359374207314e-15 
   54       1.816826795643e-10       1.130240404792e-14       1.753004676249e-13       5.880879905511e-17       2.851371342419e-11       7.443330029116e-12      -4.464298934318e-15 
   55       1.838259672077e-10       1.200167590313e-14       1.618197560884e-13       6.101815842709e-17       2.737281592658e-11       7.188652027188e-12      -4.553264991055e-15 
   56       1.859924905520e-10       1.272725089817e-14       1.472242359369e-13       6.327085761487e-17       2.629138879566e-11       6.945931369653e-12      -4.657556225735e-15 
   57       1.881816201160e-10       1.347924717858e-14       1.314999189434e-13       6.556726289895e-17       2.525917286960e-11       6.713328155501e-12      -4.805392158274e-15 
   58       1.903944476600e-10       1.425789459294e-14       1.146292456606e-13       6.790738796734e-17       2.427537881216e-11       6.490791141426e-12      -4.996803778261e-15 
   59       1.926317538349e-10       1.506344121248e-14       9.659386388149e-14       7.029112348103e-17       2.334093881522e-11       6.278565894270e-12      -5.223084891457e-15 
   60       1.948932099554e-10       1.589611866079e-14       7.737563636000e-14       7.271832046939e-17       2.245560520003e-11       6.076634591569e-12      -5.473911972196e-15 
   61       1.971772996784e-10       1.675614174953e-14       5.695661560033e-14       7.518878845992e-17       2.161787637607e-11       5.884699283483e-12      -5.737270644235e-15 
   62       1.994812406821e-10       1.764370811414e-14       3.531901864619e-14       7.770229360797e-17       2.082492279988e-11       5.702165154724e-12      -5.999382161612e-15 
   63       2.018009063443e-10       1.855899784960e-14       1.244520187013e-14       8.025855682637e-17       2.007251293387e-11       5.528123786494e-12      -6.244629889490e-15 
   64       2.041307474219e-10       1.950217314607e-14      -1.168236423719e-14       8.285725191522e-17       1.935493920519e-11       5.361336418406e-12      -6.455485785011e-15 
   65       2.064655795883e-10       2.047334276202e-14      -3.707844494849e-14       8.549801929535e-17       1.866654370071e-11       5.200575815847e-12      -6.616361320361e-15 
   66       2.088065619791e-10       2.147244751661e-14      -6.374638198033e-14       8.818051479057e-17       1.800683711574e-11       5.045773620271e-12      -6.726273306789e-15 
   67       2.111563485338e-10       2.249934982376e-14      -9.168495856648e-14       9.090436786385e-17       1.737633475791e-11       4.897086784969e-12      -6.788736976358e-15 
   68       2.135173082197e-10       2.355386539215e-14      -1.208908642696e-13       9.366916551809e-17       1.677502372556e-11       4.754553828967e-12      -6.808113810599e-15 
   69       2.158914989024e-10       2.463576187746e-14      -1.513586453576e-13       9.647445086232e-17       1.620233361444e-11       4.618088129888e-12      -6.789647795968e-15 
   70       2.182806412165e-10       2.574475753446e-14      -1.830806551799e-13       9.931972167781e-17       1.565710722443e-11       4.487471216796e-12      -6.739501679308e-15 
   71       2.206860924361e-10       2.688051986915e-14      -2.160470045438e-13       1.022044289843e-16       1.513757126622e-11       4.362346063054e-12      -6.664793223302e-15 
   72       2.231088203457e-10       2.804266429092e-14      -2.502455120907e-13       1.051279756061e-16       1.464130706801e-11       4.242210379170e-12      -6.573631461939e-15 
   73       2.255493771105e-10       2.923075276470e-14      -2.856616546727e-13       1.080897147383e-16       1.416522128223e-11       4.126409905652e-12      -6.475152955966e-15 
   74       2.280082757792e-10       3.044434171765e-14      -3.222812982566e-13       1.110890996503e-16       1.370634780933e-11       4.014316736422e-12      -6.377785222288e-15 
   75       2.304872591048e-10       3.168313910480e-14      -3.600995910791e-13       1.141261683417e-16       1.326449187858e-11       3.905917709951e-12      -6.283581197488e-15 
   76       2.329882217852e-10       3.294687441344e-14      -3.991136515852e-13       1.172011473546e-16       1.284002970539e-11       3.801324422294e-12      -6.192885923309e-15 
   77       2.355128117357e-10       3.423525173486e-14      -4.393199456887e-13       1.203143104764e-16       1.243310998524e-11       3.700595291659e-12      -6.106013384933e-15 
   78       2.380624126658e-10       3.554794948139e-14      -4.807142972679e-13       1.234659805740e-16       1.204364257263e-11       3.603732851925e-12      -6.023244435069e-15 
   79       2.406381266549e-10       3.688462010358e-14      -5.232918986619e-13       1.266565314277e-16       1.167128716000e-11       3.510681046145e-12      -5.944824718038e-15 
   80       2.432407567286e-10       3.824488980726e-14      -5.670473211662e-13       1.298863895651e-16       1.131544195675e-11       3.421322520068e-12      -5.870962593852e-15 
   81       2.458707894352e-10       3.962835827062e-14      -6.119745255285e-13       1.331560360953e-16       1.097523236815e-11       3.335475915646e-12      -5.801827062301e-15 
   82       2.485283774213e-10       4.103459836141e-14      -6.580668724445e-13       1.364660085428e-16       1.064949967434e-11       3.252893164547e-12      -5.737545687041e-15 
   83       2.512133220085e-10       4.246315585395e-14      -7.053171330542e-13       1.398169026815e-16       1.033678970926e-11       3.173256781669e-12      -5.678202519673e-15 
   84       2.539250557693e-10       4.391354914627e-14      -7.537174994371e-13       1.432093743688e-16       1.003534153965e-11       3.096177158654e-12      -5.623836023830e-15 
   85       2.566628971393e-10       4.538525985174e-14      -8.032585566874e-13       1.466440149240e-16       9.743512404510e-12       3.021290535706e-12      -5.574416760948e-15 
   86       2.594269003076e-10       4.687770342185e-14      -8.539259826792e-13       1.501209497923e-16       9.461157295444e-12       2.948577281262e-12      -5.529780789851e-15 
   87       2.622171133070e-10       4.839025316642e-14      -9.057033240860e-13       1.536401771556e-16       9.188455785973e-12       2.878091058905e-12      -5.489681489526e-15 
   88       2.650333055979e-10       4.992224852447e-14      -9.585729802371e-13       1.572016882986e-16       8.925491783379e-12       2.809861750455e-12      -5.453806453514e-15 
   89       2.678749551110e-10       5.147299463147e-14      -1.012516196566e-12       1.608054673674e-16       8.672249369262e-12       2.743894402206e-12      -5.421775081768e-15 
   90       2.707412352883e-10       5.304176188673e-14      -1.067513058062e-12       1.644514911274e-16       8.428608640094e-12       2.680168171158e-12      -5.393136172499e-15 
   91       2.736310021257e-10       5.462778552062e-14      -1.123542482715e-12       1.681397287211e-16       8.194341547779e-12       2.618635271252e-12      -5.367365514042e-15 
   92       2.765427812146e-10       5.623026516193e-14      -1.180582214970e-12       1.718701414270e-16       7.969107740208e-12       2.559219919606e-12      -5.343863476700e-15 
   93       2.794747547838e-10       5.784836440513e-14      -1.238608819172e-12       1.756426824170e-16       7.752450401815e-12       2.501817282747e-12      -5.321952604607e-15 
   94       2.824247487411e-10       5.948121037772e-14      -1.297597673019e-12       1.794572965148e-16       7.543792094141e-12       2.446292422845e-12      -5.300875207580e-15 
   95       2.853902197159e-10       6.112789330749e-14      -1.357522961008e-12       1.833139199543e-16       7.342430596382e-12       2.392479243953e-12      -5.279790952972e-15 
   96       2.883682421003e-10       6.278746608985e-14      -1.418357667886e-12       1.872124801372e-16       7.147534745952e-12       2.340179438233e-12      -5.257774457530e-15 
   97       2.913562940792e-10       6.445897416723e-14      -1.480074314336e-12       1.911529033362e-16       6.958341488915e-12       2.289211522077e-12      -5.234011484296e-15 
   98       2.943547734256e-10       6.614155103258e-14      -1.542647299567e-12       1.951351395981e-16       6.774788539426e-12       2.239568314218e-12      -5.208425109196e-15 
   99       2.973648227549e-10       6.783433578250e-14      -1.606050886522e-12       1.991591410056e-16       6.596965814862e-12       2.191280355810e-12      -5.181135955249e-15 
  100       3.003875601088e-10       6.953644398593e-14      -1.670258492605e-12       2.032248539140e-16       6.424920776809e-12       2.144367433043e-12      -5.152271751030e-15 
  101       3.034240760836e-10       7.124696763407e-14      -1.735242692490e-12       2.073322188094e-16       6.258656811617e-12       2.098838155689e-12      -5.121967429633e-15 
  102       3.064754309577e-10       7.296497509037e-14      -1.800975220950e-12       2.114811701670e-16       6.098131610948e-12       2.054689535660e-12      -5.090365227643e-15 
  103       3.095426518201e-10       7.468951104046e-14      -1.867426975670e-12       2.156716363100e-16       5.943255552329e-12       2.011906565549e-12      -5.057614784100e-15 
  104       3.126267296982e-10       7.641959644211e-14      -1.934568020067e-12       2.199035392673e-16       5.793890079706e-12       1.970461797182e-12      -5.023873239465e-15 
  105       3.157286166854e-10       7.815422847519e-14      -2.002367586112e-12       2.241767946327e-16       5.649846083990e-12       1.930314920171e-12      -4.989305334587e-15 
  106       3.188492230699e-10       7.989238049158e-14      -2.070794077145e-12       2.284913114227e-16       5.510882283613e-12       1.891412340456e-12      -4.954083509675e-15 
  107       3.219894144619e-10       8.163300196517e-14      -2.139815070695e-12       2.328469919351e-16       5.376703605076e-12       1.853686758862e-12      -4.918388003254e-15 
